Density

1.05

Photon    Coherent Incoher. Photoel. Nuclear  Electron Tot. w/  Tot. wo/ 
Energy    Scatter. Scatter. Absorb.  Pr. Prd. Pr. Prd. Coherent Coherent 

1.000E-03 1.32E+00 1.36E-02 3.65E+03 0.00E+00 0.00E+00 3.65E+03 3.65E+03 
1.035E-03 1.31E+00 1.44E-02 3.33E+03 0.00E+00 0.00E+00 3.33E+03 3.33E+03 
1.072E-03 1.31E+00 1.53E-02 3.03E+03 0.00E+00 0.00E+00 3.03E+03 3.03E+03 
1.072E-03 1.31E+00 1.53E-02 3.04E+03 0.00E+00 0.00E+00 3.04E+03 3.04E+03 
1.500E-03 1.21E+00 2.73E-02 1.23E+03 0.00E+00 0.00E+00 1.23E+03 1.23E+03 
2.000E-03 1.09E+00 4.25E-02 5.48E+02 0.00E+00 0.00E+00 5.49E+02 5.48E+02 
2.145E-03 1.06E+00 4.69E-02 4.48E+02 0.00E+00 0.00E+00 4.49E+02 4.48E+02 
2.145E-03 1.06E+00 4.69E-02 4.53E+02 0.00E+00 0.00E+00 4.54E+02 4.53E+02 
2.303E-03 1.02E+00 5.17E-02 3.70E+02 0.00E+00 0.00E+00 3.71E+02 3.70E+02 
2.472E-03 9.76E-01 5.66E-02 3.02E+02 0.00E+00 0.00E+00 3.03E+02 3.02E+02 
2.472E-03 9.76E-01 5.66E-02 3.07E+02 0.00E+00 0.00E+00 3.08E+02 3.07E+02 
2.641E-03 9.36E-01 6.15E-02 2.54E+02 0.00E+00 0.00E+00 2.55E+02 2.54E+02 
2.822E-03 8.94E-01 6.65E-02 2.10E+02 0.00E+00 0.00E+00 2.10E+02 2.10E+02 
2.822E-03 8.94E-01 6.65E-02 2.11E+02 0.00E+00 0.00E+00 2.12E+02 2.11E+02 
3.000E-03 8.55E-01 7.13E-02 1.77E+02 0.00E+00 0.00E+00 1.78E+02 1.77E+02 
3.607E-03 7.32E-01 8.61E-02 1.03E+02 0.00E+00 0.00E+00 1.04E+02 1.03E+02 
3.607E-03 7.32E-01 8.61E-02 1.07E+02 0.00E+00 0.00E+00 1.08E+02 1.07E+02 
4.000E-03 6.64E-01 9.45E-02 7.90E+01 0.00E+00 0.00E+00 7.97E+01 7.91E+01 
5.000E-03 5.23E-01 1.12E-01 4.06E+01 0.00E+00 0.00E+00 4.13E+01 4.07E+01 
6.000E-03 4.22E-01 1.25E-01 2.34E+01 0.00E+00 0.00E+00 2.40E+01 2.36E+01 
8.000E-03 2.94E-01 1.43E-01 9.74E+00 0.00E+00 0.00E+00 1.02E+01 9.88E+00 
1.000E-02 2.20E-01 1.53E-01 4.88E+00 0.00E+00 0.00E+00 5.26E+00 5.04E+00 
1.500E-02 1.28E-01 1.68E-01 1.37E+00 0.00E+00 0.00E+00 1.66E+00 1.54E+00 
2.000E-02 8.52E-02 1.76E-01 5.48E-01 0.00E+00 0.00E+00 8.09E-01 7.24E-01 
3.000E-02 4.50E-02 1.81E-01 1.48E-01 0.00E+00 0.00E+00 3.75E-01 3.30E-01 
4.000E-02 2.76E-02 1.81E-01 5.83E-02 0.00E+00 0.00E+00 2.67E-01 2.39E-01 
5.000E-02 1.86E-02 1.79E-01 2.81E-02 0.00E+00 0.00E+00 2.25E-01 2.07E-01 
6.000E-02 1.34E-02 1.75E-01 1.55E-02 0.00E+00 0.00E+00 2.04E-01 1.91E-01 
8.000E-02 7.83E-03 1.68E-01 6.02E-03 0.00E+00 0.00E+00 1.82E-01 1.74E-01 
1.000E-01 5.13E-03 1.61E-01 2.89E-03 0.00E+00 0.00E+00 1.69E-01 1.64E-01 
1.500E-01 2.34E-03 1.46E-01 7.72E-04 0.00E+00 0.00E+00 1.49E-01 1.47E-01 
2.000E-01 1.33E-03 1.34E-01 3.06E-04 0.00E+00 0.00E+00 1.36E-01 1.34E-01 
3.000E-01 5.96E-04 1.17E-01 8.71E-05 0.00E+00 0.00E+00 1.17E-01 1.17E-01 
4.000E-01 3.36E-04 1.05E-01 3.74E-05 0.00E+00 0.00E+00 1.05E-01 1.05E-01 
5.000E-01 2.16E-04 9.57E-02 2.02E-05 0.00E+00 0.00E+00 9.59E-02 9.57E-02 
6.000E-01 1.50E-04 8.85E-02 1.26E-05 0.00E+00 0.00E+00 8.87E-02 8.85E-02 
8.000E-01 8.43E-05 7.78E-02 6.36E-06 0.00E+00 0.00E+00 7.79E-02 7.78E-02 
1.000E+00 5.40E-05 6.99E-02 3.96E-06 0.00E+00 0.00E+00 7.00E-02 6.99E-02 
1.022E+00 5.17E-05 6.92E-02 3.69E-06 0.00E+00 0.00E+00 6.93E-02 6.92E-02 
1.250E+00 3.46E-05 6.25E-02 2.51E-06 1.72E-05 0.00E+00 6.26E-02 6.26E-02 
1.500E+00 2.40E-05 5.68E-02 1.82E-06 9.52E-05 0.00E+00 5.70E-02 5.69E-02 
2.000E+00 1.35E-05 4.85E-02 1.14E-06 3.79E-04 0.00E+00 4.89E-02 4.89E-02 
2.044E+00 1.29E-05 4.79E-02 1.10E-06 4.08E-04 0.00E+00 4.83E-02 4.83E-02 
3.000E+00 6.00E-06 3.82E-02 6.35E-07 1.08E-03 1.34E-05 3.93E-02 3.93E-02 
4.000E+00 3.38E-06 3.18E-02 4.35E-07 1.76E-03 5.45E-05 3.36E-02 3.36E-02 
5.000E+00 2.16E-06 2.75E-02 3.29E-07 2.36E-03 1.09E-04 3.00E-02 3.00E-02 
6.000E+00 1.50E-06 2.43E-02 2.65E-07 2.90E-03 1.67E-04 2.74E-02 2.74E-02 
