**** COMMENT ****

**** INPUTS ****
kVp [kV] hvMIN [keV] Dhv [keV]
80  8  1
Angle [deg.]
7
t_AIR t_BE t_AL t_TI t_CU t_SN t_W t_Wa [mm]
1000  0.8  3  0  0  0  0  0
Nf P
0.68  0.33
alpha [deg.] Y [mm] H [mm]
0  0  1000
****CALCULATED OUTPUTS ****
Brem[uGy/mAs@1m] Char[uGy/mAs@1m]
48.7606  0.600879
HVL1[cm AL] HVL2[cm AL] HVL1[cmCu] HVL2[cmCu] MeanE[keV] EffEAl[keV] EffECu[keV]
0.3229613  0.4640617  0.0112507  0.0190826  44.88002  34.54732  35.35918
**** CALCULATED SPECTRUM ****
Energy[keV]  N[keV cm^2 mAs]^-1 @ 1 meter
8  5.543610e-12
9  1.272730e-6
10  0.0039262
11  0.3942756
12  13.8186
13  189.6259
14  1459.594
15  6848.334
16  23008.11
17  58948.32
18  123414.2
19  224274.8
20  363190.5
21  537437.3
22  739145.4
23  960235.8
24  1.189676e+6
25  1.407432e+6
26  1.630850e+6
27  1.835356e+6
28  2.024037e+6
29  2.190103e+6
30  2.323645e+6
31  2.441296e+6
32  2.539366e+6
33  2.614740e+6
34  2.671731e+6
35  2.707182e+6
36  2.724793e+6
37  2.731994e+6
38  2.725248e+6
39  2.705156e+6
40  2.676812e+6
41  2.641498e+6
42  2.597628e+6
43  2.547760e+6
44  2.493824e+6
45  2.435589e+6
46  2.374461e+6
47  2.310170e+6
48  2.242179e+6
49  2.176053e+6
50  2.107002e+6
51  2.036357e+6
52  1.965462e+6
53  1.896216e+6
54  1.825455e+6
55  1.755290e+6
56  1.684165e+6
57  1.614807e+6
58  2.134525e+6
59  2.504051e+6
60  1.409922e+6
61  1.342900e+6
62  1.276405e+6
63  1.210281e+6
64  1.146036e+6
65  1.080925e+6
66  1.018076e+6
67  1.295523e+6
68  891280
69  918438.9
70  705389.5
71  652337.1
72  598880.1
73  543988.6
74  488240.4
75  430972.2
76  367710.7
77  304383.7
78  239928.5
79  133111.4
80  0
