**** COMMENT ****

**** INPUTS ****
kVp [kV] hvMIN [keV] Dhv [keV]
120  12  1
Angle [deg.]
7
t_AIR t_BE t_AL t_TI t_CU t_SN t_W t_Wa [mm]
1000  0.8  12  0  0  0  0  0
Nf P
0.68  0.33
alpha [deg.] Y [mm] H [mm]
0  0  1000
****CALCULATED OUTPUTS ****
Brem[uGy/mAs@1m] Char[uGy/mAs@1m]
28.06504  4.021822
HVL1[cm AL] HVL2[cm AL] HVL1[cmCu] HVL2[cmCu] MeanE[keV] EffEAl[keV] EffECu[keV]
0.853827  0.9904556  0.0470547  0.0718765  65.57768  56.7911  59.32439
**** CALCULATED SPECTRUM ****
Energy[keV]  N[keV cm^2 mAs]^-1 @ 1 meter
12  8.594587e-16
13  2.809200e-11
14  6.662006e-8
15  0.0000237
16  0.0022974
17  0.0803666
18  1.318137
19  12.76921
20  80.588
21  365.059
22  1268.303
23  3596.381
24  8620.29
25  17462.82
26  33000.64
27  56297.78
28  89535.92
29  133052
30  184465.1
31  247033.8
32  320646.3
33  401242.1
34  487330.7
35  576122.5
36  667296.1
37  759142.5
38  850638
39  936269.4
40  1.021484e+6
41  1.101244e+6
42  1.173248e+6
43  1.240763e+6
44  1.303062e+6
45  1.357972e+6
46  1.410307e+6
47  1.453527e+6
48  1.488465e+6
49  1.523132e+6
50  1.548040e+6
51  1.567920e+6
52  1.582125e+6
53  1.596567e+6
54  1.604618e+6
55  1.607838e+6
56  1.605085e+6
57  1.601712e+6
58  5.395871e+6
59  8.331629e+6
60  1.576176e+6
61  1.561583e+6
62  1.547556e+6
63  1.528086e+6
64  1.513594e+6
65  1.489564e+6
66  1.470456e+6
67  3.929316e+6
68  1.422810e+6
69  2.060024e+6
70  1.081666e+6
71  1.069729e+6
72  1.058983e+6
73  1.047647e+6
74  1.034510e+6
75  1.021388e+6
76  1.004135e+6
77  990129.3
78  975633
79  957753.2
80  939799.9
81  921550.2
82  906360.5
83  887569.8
84  866745.8
85  847471.6
86  828523.4
87  809831.5
88  790587.5
89  769206.1
90  749884.7
91  728407.8
92  709067.1
93  687525.5
94  666163.2
95  646658.9
96  625357.7
97  603684.9
98  582363
99  560908.2
100  541010.6
101  519791.5
102  497885
103  476349.6
104  454549.6
105  432668.9
106  410868.9
107  388408.3
108  365397.6
109  342481.9
110  319892.3
111  296813.2
112  273200.7
113  249578.7
114  222327.9
115  196515.7
116  170473.5
117  144571.2
118  107314.7
119  52962.9
120  0
