Density

1.18

Photon    Coherent Incoher. Photoel. Nuclear  Electron Tot. w/  Tot. wo/ 
Energy    Scatter. Scatter. Absorb.  Pr. Prd. Pr. Prd. Coherent Coherent 

1.000E-03 1.156E+00 1.433E-02 2.795E+03 0.000E+00 0.000E+00 2.796E+03 2.795E+03 
1.500E-03 1.044E+00 2.859E-02 9.150E+02 0.000E+00 0.000E+00 9.160E+02 9.150E+02 
2.000E-03 9.231E-01 4.412E-02 4.030E+02 0.000E+00 0.000E+00 4.040E+02 4.031E+02 
3.000E-03 7.016E-01 7.300E-02 1.229E+02 0.000E+00 0.000E+00 1.237E+02 1.230E+02 
4.000E-03 5.358E-01 9.575E-02 5.188E+01 0.000E+00 0.000E+00 5.251E+01 5.198E+01 
5.000E-03 4.199E-01 1.125E-01 2.630E+01 0.000E+00 0.000E+00 2.683E+01 2.641E+01 
6.000E-03 3.392E-01 1.246E-01 1.500E+01 0.000E+00 0.000E+00 1.546E+01 1.512E+01 
8.000E-03 2.390E-01 1.408E-01 6.119E+00 0.000E+00 0.000E+00 6.499E+00 6.260E+00 
1.000E-02 1.813E-01 1.512E-01 3.027E+00 0.000E+00 0.000E+00 3.360E+00 3.178E+00 
1.500E-02 1.072E-01 1.663E-01 8.285E-01 0.000E+00 0.000E+00 1.102E+00 9.948E-01 
2.000E-02 7.104E-02 1.740E-01 3.266E-01 0.000E+00 0.000E+00 5.716E-01 5.006E-01 
3.000E-02 3.722E-02 1.792E-01 8.675E-02 0.000E+00 0.000E+00 3.032E-01 2.660E-01 
4.000E-02 2.270E-02 1.787E-01 3.362E-02 0.000E+00 0.000E+00 2.350E-01 2.123E-01 
5.000E-02 1.524E-02 1.760E-01 1.607E-02 0.000E+00 0.000E+00 2.073E-01 1.921E-01 
6.000E-02 1.093E-02 1.726E-01 8.781E-03 0.000E+00 0.000E+00 1.923E-01 1.814E-01 
8.000E-02 6.385E-03 1.653E-01 3.381E-03 0.000E+00 0.000E+00 1.750E-01 1.687E-01 
1.000E-01 4.170E-03 1.582E-01 1.614E-03 0.000E+00 0.000E+00 1.640E-01 1.598E-01 
1.500E-01 1.896E-03 1.432E-01 4.257E-04 0.000E+00 0.000E+00 1.456E-01 1.437E-01 
2.000E-01 1.075E-03 1.315E-01 1.678E-04 0.000E+00 0.000E+00 1.328E-01 1.317E-01 
3.000E-01 4.810E-04 1.146E-01 4.728E-05 0.000E+00 0.000E+00 1.151E-01 1.146E-01 
4.000E-01 2.712E-04 1.027E-01 2.022E-05 0.000E+00 0.000E+00 1.030E-01 1.028E-01 
5.000E-01 1.737E-04 9.387E-02 1.089E-05 0.000E+00 0.000E+00 9.405E-02 9.388E-02 
6.000E-01 1.207E-04 8.684E-02 6.778E-06 0.000E+00 0.000E+00 8.697E-02 8.684E-02 
8.000E-01 6.794E-05 7.630E-02 3.420E-06 0.000E+00 0.000E+00 7.637E-02 7.630E-02 
1.000E+00 4.349E-05 6.862E-02 2.126E-06 0.000E+00 0.000E+00 6.866E-02 6.862E-02 
1.022E+00 4.165E-05 6.790E-02 1.974E-06 0.000E+00 0.000E+00 6.795E-02 6.791E-02 
1.250E+00 2.785E-05 6.136E-02 1.340E-06 1.522E-05 0.000E+00 6.140E-02 6.138E-02 
1.500E+00 1.934E-05 5.578E-02 9.725E-07 8.438E-05 0.000E+00 5.588E-02 5.586E-02 
2.000E+00 1.088E-05 4.759E-02 6.125E-07 3.362E-04 0.000E+00 4.794E-02 4.793E-02 
2.044E+00 1.041E-05 4.700E-02 5.925E-07 3.624E-04 0.000E+00 4.738E-02 4.737E-02 
3.000E+00 4.835E-06 3.744E-02 3.427E-07 9.620E-04 1.310E-05 3.842E-02 3.842E-02 
4.000E+00 2.720E-06 3.123E-02 2.355E-07 1.561E-03 5.348E-05 3.285E-02 3.285E-02 
5.000E+00 1.740E-06 2.697E-02 1.787E-07 2.095E-03 1.066E-04 2.918E-02 2.917E-02 
6.000E+00 1.209E-06 2.384E-02 1.437E-07 2.575E-03 1.637E-04 2.658E-02 2.658E-02 
