Density

0.97

Photon    Coherent Incoher. Photoel. Nuclear  Electron Tot. w/  Tot. wo/ 
Energy    Scatter. Scatter. Absorb.  Pr. Prd. Pr. Prd. Coherent Coherent 

1.000E-03 1.15E+00 1.54E-02 2.82E+03 0.00E+00 0.00E+00 2.82E+03 2.82E+03 
1.035E-03 1.15E+00 1.63E-02 2.57E+03 0.00E+00 0.00E+00 2.57E+03 2.57E+03 
1.072E-03 1.14E+00 1.74E-02 2.33E+03 0.00E+00 0.00E+00 2.34E+03 2.33E+03 
1.072E-03 1.14E+00 1.74E-02 2.34E+03 0.00E+00 0.00E+00 2.34E+03 2.34E+03 
1.500E-03 1.05E+00 3.06E-02 9.30E+02 0.00E+00 0.00E+00 9.31E+02 9.30E+02 
2.000E-03 9.26E-01 4.72E-02 4.11E+02 0.00E+00 0.00E+00 4.12E+02 4.11E+02 
2.472E-03 8.17E-01 6.23E-02 2.22E+02 0.00E+00 0.00E+00 2.23E+02 2.22E+02 
2.472E-03 8.17E-01 6.23E-02 2.24E+02 0.00E+00 0.00E+00 2.25E+02 2.24E+02 
2.641E-03 7.80E-01 6.74E-02 1.85E+02 0.00E+00 0.00E+00 1.85E+02 1.85E+02 
2.822E-03 7.42E-01 7.27E-02 1.52E+02 0.00E+00 0.00E+00 1.53E+02 1.52E+02 
2.822E-03 7.42E-01 7.27E-02 1.53E+02 0.00E+00 0.00E+00 1.54E+02 1.53E+02 
3.000E-03 7.07E-01 7.77E-02 1.28E+02 0.00E+00 0.00E+00 1.29E+02 1.28E+02 
4.000E-03 5.41E-01 1.01E-01 5.44E+01 0.00E+00 0.00E+00 5.50E+01 5.45E+01 
5.000E-03 4.24E-01 1.19E-01 2.77E+01 0.00E+00 0.00E+00 2.82E+01 2.78E+01 
6.000E-03 3.42E-01 1.31E-01 1.58E+01 0.00E+00 0.00E+00 1.63E+01 1.59E+01 
8.000E-03 2.41E-01 1.48E-01 6.48E+00 0.00E+00 0.00E+00 6.87E+00 6.63E+00 
1.000E-02 1.82E-01 1.58E-01 3.22E+00 0.00E+00 0.00E+00 3.56E+00 3.37E+00 
1.500E-02 1.07E-01 1.73E-01 8.85E-01 0.00E+00 0.00E+00 1.17E+00 1.06E+00 
2.000E-02 7.11E-02 1.80E-01 3.50E-01 0.00E+00 0.00E+00 6.02E-01 5.30E-01 
3.000E-02 3.73E-02 1.85E-01 9.35E-02 0.00E+00 0.00E+00 3.16E-01 2.79E-01 
4.000E-02 2.28E-02 1.84E-01 3.64E-02 0.00E+00 0.00E+00 2.43E-01 2.21E-01 
5.000E-02 1.53E-02 1.81E-01 1.74E-02 0.00E+00 0.00E+00 2.14E-01 1.99E-01 
6.000E-02 1.10E-02 1.78E-01 9.53E-03 0.00E+00 0.00E+00 1.98E-01 1.87E-01 
8.000E-02 6.41E-03 1.70E-01 3.68E-03 0.00E+00 0.00E+00 1.80E-01 1.74E-01 
1.000E-01 4.19E-03 1.63E-01 1.76E-03 0.00E+00 0.00E+00 1.69E-01 1.65E-01 
1.500E-01 1.91E-03 1.47E-01 4.66E-04 0.00E+00 0.00E+00 1.50E-01 1.48E-01 
2.000E-01 1.08E-03 1.35E-01 1.84E-04 0.00E+00 0.00E+00 1.37E-01 1.36E-01 
3.000E-01 4.84E-04 1.18E-01 5.19E-05 0.00E+00 0.00E+00 1.18E-01 1.18E-01 
4.000E-01 2.73E-04 1.06E-01 2.22E-05 0.00E+00 0.00E+00 1.06E-01 1.06E-01 
5.000E-01 1.75E-04 9.66E-02 1.20E-05 0.00E+00 0.00E+00 9.68E-02 9.66E-02 
6.000E-01 1.22E-04 8.94E-02 7.46E-06 0.00E+00 0.00E+00 8.95E-02 8.94E-02 
8.000E-01 6.84E-05 7.85E-02 3.76E-06 0.00E+00 0.00E+00 7.86E-02 7.85E-02 
1.000E+00 4.38E-05 7.06E-02 2.34E-06 0.00E+00 0.00E+00 7.07E-02 7.06E-02 
1.022E+00 4.19E-05 6.99E-02 2.18E-06 0.00E+00 0.00E+00 6.99E-02 6.99E-02 
1.250E+00 2.80E-05 6.32E-02 1.48E-06 1.52E-05 0.00E+00 6.32E-02 6.32E-02 
1.500E+00 1.95E-05 5.74E-02 1.07E-06 8.41E-05 0.00E+00 5.75E-02 5.75E-02 
2.000E+00 1.09E-05 4.90E-02 6.74E-07 3.35E-04 0.00E+00 4.93E-02 4.93E-02 
2.044E+00 1.05E-05 4.84E-02 6.52E-07 3.61E-04 0.00E+00 4.87E-02 4.87E-02 
3.000E+00 4.87E-06 3.85E-02 3.77E-07 9.59E-04 1.35E-05 3.95E-02 3.95E-02 
4.000E+00 2.74E-06 3.21E-02 2.59E-07 1.56E-03 5.50E-05 3.38E-02 3.38E-02 
5.000E+00 1.75E-06 2.78E-02 1.96E-07 2.09E-03 1.10E-04 3.00E-02 3.00E-02 
6.000E+00 1.22E-06 2.45E-02 1.58E-07 2.57E-03 1.68E-04 2.73E-02 2.73E-02 
