Density

0.93

Photon    Coherent Incoher. Photoel. Nuclear  Electron Tot. w/  Tot. wo/ 
Energy    Scatter. Scatter. Absorb.  Pr. Prd. Pr. Prd. Coherent Coherent 

1.000E-03 1.08E+00 1.62E-02 2.43E+03 0.00E+00 0.00E+00 2.43E+03 2.43E+03 
1.035E-03 1.07E+00 1.72E-02 2.20E+03 0.00E+00 0.00E+00 2.21E+03 2.20E+03 
1.072E-03 1.07E+00 1.83E-02 2.00E+03 0.00E+00 0.00E+00 2.00E+03 2.00E+03 
1.072E-03 1.07E+00 1.83E-02 2.01E+03 0.00E+00 0.00E+00 2.01E+03 2.01E+03 
1.500E-03 9.73E-01 3.21E-02 7.90E+02 0.00E+00 0.00E+00 7.91E+02 7.90E+02 
2.000E-03 8.54E-01 4.93E-02 3.46E+02 0.00E+00 0.00E+00 3.47E+02 3.46E+02 
2.472E-03 7.47E-01 6.48E-02 1.86E+02 0.00E+00 0.00E+00 1.87E+02 1.86E+02 
2.472E-03 7.47E-01 6.48E-02 1.88E+02 0.00E+00 0.00E+00 1.89E+02 1.88E+02 
2.641E-03 7.11E-01 7.00E-02 1.55E+02 0.00E+00 0.00E+00 1.56E+02 1.55E+02 
2.822E-03 6.75E-01 7.54E-02 1.27E+02 0.00E+00 0.00E+00 1.28E+02 1.27E+02 
2.822E-03 6.75E-01 7.54E-02 1.29E+02 0.00E+00 0.00E+00 1.29E+02 1.29E+02 
3.000E-03 6.42E-01 8.04E-02 1.07E+02 0.00E+00 0.00E+00 1.08E+02 1.08E+02 
4.000E-03 4.87E-01 1.04E-01 4.53E+01 0.00E+00 0.00E+00 4.59E+01 4.54E+01 
5.000E-03 3.81E-01 1.21E-01 2.30E+01 0.00E+00 0.00E+00 2.35E+01 2.31E+01 
6.000E-03 3.08E-01 1.34E-01 1.31E+01 0.00E+00 0.00E+00 1.35E+01 1.32E+01 
8.000E-03 2.18E-01 1.50E-01 5.34E+00 0.00E+00 0.00E+00 5.71E+00 5.49E+00 
1.000E-02 1.66E-01 1.60E-01 2.64E+00 0.00E+00 0.00E+00 2.97E+00 2.80E+00 
1.500E-02 9.88E-02 1.75E-01 7.24E-01 0.00E+00 0.00E+00 9.98E-01 8.99E-01 
2.000E-02 6.54E-02 1.82E-01 2.86E-01 0.00E+00 0.00E+00 5.33E-01 4.68E-01 
3.000E-02 3.41E-02 1.86E-01 7.60E-02 0.00E+00 0.00E+00 2.97E-01 2.62E-01 
4.000E-02 2.08E-02 1.85E-01 2.95E-02 0.00E+00 0.00E+00 2.36E-01 2.15E-01 
5.000E-02 1.40E-02 1.82E-01 1.41E-02 0.00E+00 0.00E+00 2.10E-01 1.96E-01 
6.000E-02 1.00E-02 1.79E-01 7.71E-03 0.00E+00 0.00E+00 1.96E-01 1.86E-01 
8.000E-02 5.84E-03 1.71E-01 2.97E-03 0.00E+00 0.00E+00 1.80E-01 1.74E-01 
1.000E-01 3.81E-03 1.64E-01 1.42E-03 0.00E+00 0.00E+00 1.69E-01 1.65E-01 
1.500E-01 1.73E-03 1.48E-01 3.75E-04 0.00E+00 0.00E+00 1.50E-01 1.48E-01 
2.000E-01 9.81E-04 1.36E-01 1.48E-04 0.00E+00 0.00E+00 1.37E-01 1.36E-01 
3.000E-01 4.39E-04 1.18E-01 4.18E-05 0.00E+00 0.00E+00 1.19E-01 1.18E-01 
4.000E-01 2.47E-04 1.06E-01 1.79E-05 0.00E+00 0.00E+00 1.06E-01 1.06E-01 
5.000E-01 1.58E-04 9.69E-02 9.63E-06 0.00E+00 0.00E+00 9.71E-02 9.70E-02 
6.000E-01 1.10E-04 8.97E-02 6.00E-06 0.00E+00 0.00E+00 8.98E-02 8.97E-02 
8.000E-01 6.20E-05 7.88E-02 3.03E-06 0.00E+00 0.00E+00 7.89E-02 7.88E-02 
1.000E+00 3.97E-05 7.09E-02 1.88E-06 0.00E+00 0.00E+00 7.09E-02 7.09E-02 
1.022E+00 3.80E-05 7.01E-02 1.75E-06 0.00E+00 0.00E+00 7.02E-02 7.01E-02 
1.250E+00 2.54E-05 6.34E-02 1.19E-06 1.43E-05 0.00E+00 6.34E-02 6.34E-02 
1.500E+00 1.76E-05 5.76E-02 8.60E-07 7.95E-05 0.00E+00 5.77E-02 5.77E-02 
2.000E+00 9.92E-06 4.91E-02 5.42E-07 3.17E-04 0.00E+00 4.95E-02 4.95E-02 
2.044E+00 9.50E-06 4.85E-02 5.24E-07 3.41E-04 0.00E+00 4.89E-02 4.89E-02 
3.000E+00 4.41E-06 3.87E-02 3.03E-07 9.07E-04 1.35E-05 3.96E-02 3.96E-02 
4.000E+00 2.48E-06 3.23E-02 2.08E-07 1.47E-03 5.52E-05 3.38E-02 3.38E-02 
5.000E+00 1.59E-06 2.79E-02 1.58E-07 1.97E-03 1.10E-04 2.99E-02 2.99E-02 
6.000E+00 1.10E-06 2.46E-02 1.27E-07 2.43E-03 1.69E-04 2.72E-02 2.72E-02 
