Density

0.95

Photon    Coherent Incoher. Photoel. Nuclear  Electron Tot. w/  Tot. wo/ 
Energy    Scatter. Scatter. Absorb.  Pr. Prd. Pr. Prd. Coherent Coherent 

1.000E-03 1.12E+00 1.58E-02 2.63E+03 0.00E+00 0.00E+00 2.63E+03 2.63E+03 
1.035E-03 1.11E+00 1.68E-02 2.39E+03 0.00E+00 0.00E+00 2.39E+03 2.39E+03 
1.072E-03 1.10E+00 1.78E-02 2.17E+03 0.00E+00 0.00E+00 2.17E+03 2.17E+03 
1.072E-03 1.10E+00 1.78E-02 2.18E+03 0.00E+00 0.00E+00 2.18E+03 2.18E+03 
1.500E-03 1.01E+00 3.14E-02 8.61E+02 0.00E+00 0.00E+00 8.62E+02 8.61E+02 
2.000E-03 8.91E-01 4.82E-02 3.79E+02 0.00E+00 0.00E+00 3.80E+02 3.79E+02 
2.472E-03 7.82E-01 6.35E-02 2.05E+02 0.00E+00 0.00E+00 2.05E+02 2.05E+02 
2.472E-03 7.82E-01 6.35E-02 2.06E+02 0.00E+00 0.00E+00 2.07E+02 2.06E+02 
2.641E-03 7.46E-01 6.87E-02 1.70E+02 0.00E+00 0.00E+00 1.71E+02 1.70E+02 
2.822E-03 7.09E-01 7.40E-02 1.40E+02 0.00E+00 0.00E+00 1.41E+02 1.40E+02 
2.822E-03 7.09E-01 7.40E-02 1.41E+02 0.00E+00 0.00E+00 1.42E+02 1.41E+02 
3.000E-03 6.75E-01 7.90E-02 1.18E+02 0.00E+00 0.00E+00 1.19E+02 1.18E+02 
4.000E-03 5.15E-01 1.03E-01 4.99E+01 0.00E+00 0.00E+00 5.05E+01 5.00E+01 
5.000E-03 4.03E-01 1.20E-01 2.54E+01 0.00E+00 0.00E+00 2.59E+01 2.55E+01 
6.000E-03 3.26E-01 1.32E-01 1.45E+01 0.00E+00 0.00E+00 1.49E+01 1.46E+01 
8.000E-03 2.30E-01 1.49E-01 5.92E+00 0.00E+00 0.00E+00 6.30E+00 6.07E+00 
1.000E-02 1.74E-01 1.59E-01 2.93E+00 0.00E+00 0.00E+00 3.27E+00 3.09E+00 
1.500E-02 1.03E-01 1.74E-01 8.06E-01 0.00E+00 0.00E+00 1.08E+00 9.80E-01 
2.000E-02 6.83E-02 1.81E-01 3.18E-01 0.00E+00 0.00E+00 5.68E-01 5.00E-01 
3.000E-02 3.57E-02 1.86E-01 8.49E-02 0.00E+00 0.00E+00 3.06E-01 2.71E-01 
4.000E-02 2.18E-02 1.85E-01 3.30E-02 0.00E+00 0.00E+00 2.40E-01 2.18E-01 
5.000E-02 1.46E-02 1.82E-01 1.58E-02 0.00E+00 0.00E+00 2.12E-01 1.98E-01 
6.000E-02 1.05E-02 1.78E-01 8.64E-03 0.00E+00 0.00E+00 1.97E-01 1.87E-01 
8.000E-02 6.13E-03 1.71E-01 3.33E-03 0.00E+00 0.00E+00 1.80E-01 1.74E-01 
1.000E-01 4.00E-03 1.63E-01 1.59E-03 0.00E+00 0.00E+00 1.69E-01 1.65E-01 
1.500E-01 1.82E-03 1.48E-01 4.21E-04 0.00E+00 0.00E+00 1.50E-01 1.48E-01 
2.000E-01 1.03E-03 1.36E-01 1.66E-04 0.00E+00 0.00E+00 1.37E-01 1.36E-01 
3.000E-01 4.62E-04 1.18E-01 4.69E-05 0.00E+00 0.00E+00 1.19E-01 1.18E-01 
4.000E-01 2.60E-04 1.06E-01 2.01E-05 0.00E+00 0.00E+00 1.06E-01 1.06E-01 
5.000E-01 1.67E-04 9.68E-02 1.08E-05 0.00E+00 0.00E+00 9.70E-02 9.68E-02 
6.000E-01 1.16E-04 8.95E-02 6.74E-06 0.00E+00 0.00E+00 8.97E-02 8.95E-02 
8.000E-01 6.52E-05 7.87E-02 3.40E-06 0.00E+00 0.00E+00 7.87E-02 7.87E-02 
1.000E+00 4.18E-05 7.07E-02 2.11E-06 0.00E+00 0.00E+00 7.08E-02 7.07E-02 
1.022E+00 4.00E-05 7.00E-02 1.96E-06 0.00E+00 0.00E+00 7.00E-02 7.00E-02 
1.250E+00 2.67E-05 6.33E-02 1.33E-06 1.48E-05 0.00E+00 6.33E-02 6.33E-02 
1.500E+00 1.86E-05 5.75E-02 9.68E-07 8.18E-05 0.00E+00 5.76E-02 5.76E-02 
2.000E+00 1.04E-05 4.91E-02 6.09E-07 3.26E-04 0.00E+00 4.94E-02 4.94E-02 
2.044E+00 1.00E-05 4.85E-02 5.89E-07 3.52E-04 0.00E+00 4.88E-02 4.88E-02 
3.000E+00 4.64E-06 3.86E-02 3.41E-07 9.33E-04 1.35E-05 3.96E-02 3.95E-02 
4.000E+00 2.61E-06 3.22E-02 2.34E-07 1.51E-03 5.51E-05 3.38E-02 3.38E-02 
5.000E+00 1.67E-06 2.78E-02 1.77E-07 2.03E-03 1.10E-04 3.00E-02 2.99E-02 
6.000E+00 1.16E-06 2.46E-02 1.43E-07 2.50E-03 1.69E-04 2.72E-02 2.72E-02 