Density

1.03

Photon    Coherent Incoher. Photoel. Nuclear  Electron Tot. w/  Tot. wo/ 
Energy    Scatter. Scatter. Absorb.  Pr. Prd. Pr. Prd. Coherent Coherent 

1.000E-03 1.263E+00 1.419E-02 3.383E+03 0.000E+00 0.000E+00 3.384E+03 3.383E+03 
1.500E-03 1.155E+00 2.848E-02 1.127E+03 0.000E+00 0.000E+00 1.128E+03 1.127E+03 
2.000E-03 1.035E+00 4.419E-02 5.017E+02 0.000E+00 0.000E+00 5.028E+02 5.017E+02 
2.145E-03 9.990E-01 4.874E-02 4.104E+02 0.000E+00 0.000E+00 4.114E+02 4.104E+02 
2.145E-03 9.990E-01 4.874E-02 4.126E+02 0.000E+00 0.000E+00 4.137E+02 4.127E+02 
2.303E-03 9.609E-01 5.359E-02 3.367E+02 0.000E+00 0.000E+00 3.377E+02 3.367E+02 
2.472E-03 9.209E-01 5.869E-02 2.744E+02 0.000E+00 0.000E+00 2.754E+02 2.744E+02 
2.472E-03 9.209E-01 5.869E-02 2.781E+02 0.000E+00 0.000E+00 2.791E+02 2.781E+02 
2.641E-03 8.819E-01 6.366E-02 2.296E+02 0.000E+00 0.000E+00 2.305E+02 2.296E+02 
2.822E-03 8.417E-01 6.880E-02 1.893E+02 0.000E+00 0.000E+00 1.902E+02 1.894E+02 
2.822E-03 8.417E-01 6.880E-02 1.922E+02 0.000E+00 0.000E+00 1.932E+02 1.923E+02 
3.000E-03 8.037E-01 7.364E-02 1.610E+02 0.000E+00 0.000E+00 1.619E+02 1.611E+02 
3.607E-03 6.864E-01 8.864E-02 9.360E+01 0.000E+00 0.000E+00 9.438E+01 9.369E+01 
3.607E-03 6.864E-01 8.864E-02 9.467E+01 0.000E+00 0.000E+00 9.544E+01 9.476E+01 
4.000E-03 6.211E-01 9.706E-02 6.963E+01 0.000E+00 0.000E+00 7.035E+01 6.972E+01 
5.000E-03 4.886E-01 1.145E-01 3.566E+01 0.000E+00 0.000E+00 3.626E+01 3.577E+01 
6.000E-03 3.942E-01 1.274E-01 2.050E+01 0.000E+00 0.000E+00 2.102E+01 2.063E+01 
8.000E-03 2.752E-01 1.446E-01 8.468E+00 0.000E+00 0.000E+00 8.888E+00 8.613E+00 
1.000E-02 2.066E-01 1.552E-01 4.229E+00 0.000E+00 0.000E+00 4.591E+00 4.384E+00 
1.500E-02 1.207E-01 1.701E-01 1.176E+00 0.000E+00 0.000E+00 1.467E+00 1.346E+00 
2.000E-02 8.010E-02 1.776E-01 4.683E-01 0.000E+00 0.000E+00 7.261E-01 6.460E-01 
3.000E-02 4.224E-02 1.829E-01 1.261E-01 0.000E+00 0.000E+00 3.512E-01 3.089E-01 
4.000E-02 2.584E-02 1.824E-01 4.929E-02 0.000E+00 0.000E+00 2.576E-01 2.317E-01 
5.000E-02 1.739E-02 1.798E-01 2.371E-02 0.000E+00 0.000E+00 2.209E-01 2.035E-01 
6.000E-02 1.249E-02 1.764E-01 1.301E-02 0.000E+00 0.000E+00 2.019E-01 1.894E-01 
8.000E-02 7.319E-03 1.690E-01 5.045E-03 0.000E+00 0.000E+00 1.814E-01 1.741E-01 
1.000E-01 4.790E-03 1.619E-01 2.421E-03 0.000E+00 0.000E+00 1.691E-01 1.643E-01 
1.500E-01 2.184E-03 1.466E-01 6.430E-04 0.000E+00 0.000E+00 1.494E-01 1.472E-01 
2.000E-01 1.240E-03 1.346E-01 2.547E-04 0.000E+00 0.000E+00 1.361E-01 1.349E-01 
3.000E-01 5.554E-04 1.173E-01 7.216E-05 0.000E+00 0.000E+00 1.179E-01 1.174E-01 
4.000E-01 3.132E-04 1.052E-01 3.094E-05 0.000E+00 0.000E+00 1.055E-01 1.052E-01 
5.000E-01 2.007E-04 9.610E-02 1.670E-05 0.000E+00 0.000E+00 9.631E-02 9.611E-02 
6.000E-01 1.395E-04 8.890E-02 1.040E-05 0.000E+00 0.000E+00 8.905E-02 8.891E-02 
8.000E-01 7.852E-05 7.812E-02 5.254E-06 0.000E+00 0.000E+00 7.820E-02 7.813E-02 
1.000E+00 5.027E-05 7.026E-02 3.266E-06 0.000E+00 0.000E+00 7.031E-02 7.026E-02 
1.022E+00 4.813E-05 6.952E-02 3.046E-06 0.000E+00 0.000E+00 6.957E-02 6.952E-02 
1.250E+00 3.219E-05 6.282E-02 2.067E-06 1.650E-05 0.000E+00 6.287E-02 6.284E-02 
1.500E+00 2.235E-05 5.710E-02 1.499E-06 9.127E-05 0.000E+00 5.722E-02 5.719E-02 
2.000E+00 1.257E-05 4.873E-02 9.420E-07 3.633E-04 0.000E+00 4.911E-02 4.910E-02 
2.044E+00 1.203E-05 4.812E-02 9.112E-07 3.916E-04 0.000E+00 4.853E-02 4.851E-02 
3.000E+00 5.588E-06 3.833E-02 5.255E-07 1.039E-03 1.341E-05 3.939E-02 3.939E-02 
4.000E+00 3.144E-06 3.198E-02 3.603E-07 1.685E-03 5.476E-05 3.372E-02 3.372E-02 
5.000E+00 2.012E-06 2.762E-02 2.730E-07 2.261E-03 1.091E-04 2.999E-02 2.999E-02 
6.000E+00 1.397E-06 2.441E-02 2.194E-07 2.779E-03 1.676E-04 2.736E-02 2.735E-02 
