Density

0.00120479

Photon    Coherent Incoher. Photoel. Nuclear  Electron Tot. w/  
Energy    Scatter. Scatter. Absorb.  Pr. Prd. Pr. Prd. Coherent 

1.000E-03 1.34E+00 1.04E-02 3.61E+03 0.00E+00 0.00E+00 3.61E+03 
1.500E-03 1.23E+00 2.13E-02 1.19E+03 0.00E+00 0.00E+00 1.19E+03 
2.000E-03 1.10E+00 3.35E-02 5.27E+02 0.00E+00 0.00E+00 5.28E+02 
3.000E-03 8.48E-01 5.77E-02 1.62E+02 0.00E+00 0.00E+00 1.62E+02 
4.000E-03 6.51E-01 7.81E-02 6.83E+01 0.00E+00 0.00E+00 6.91E+01 
5.000E-03 5.10E-01 9.37E-02 3.47E+01 0.00E+00 0.00E+00 3.53E+01 
6.000E-03 4.11E-01 1.06E-01 1.98E+01 0.00E+00 0.00E+00 2.03E+01 
8.000E-03 2.86E-01 1.22E-01 8.11E+00 0.00E+00 0.00E+00 8.52E+00 
1.000E-02 2.16E-01 1.32E-01 4.02E+00 0.00E+00 0.00E+00 4.37E+00 
1.500E-02 1.27E-01 1.48E-01 1.10E+00 0.00E+00 0.00E+00 1.38E+00 
2.000E-02 8.47E-02 1.56E-01 4.35E-01 0.00E+00 0.00E+00 6.76E-01 
3.000E-02 4.47E-02 1.63E-01 1.16E-01 0.00E+00 0.00E+00 3.23E-01 
4.000E-02 2.73E-02 1.64E-01 4.49E-02 0.00E+00 0.00E+00 2.36E-01 
5.000E-02 1.84E-02 1.62E-01 2.15E-02 0.00E+00 0.00E+00 2.02E-01 
6.000E-02 1.32E-02 1.59E-01 1.17E-02 0.00E+00 0.00E+00 1.84E-01 
8.000E-02 7.73E-03 1.53E-01 4.52E-03 0.00E+00 0.00E+00 1.65E-01 
1.000E-01 5.05E-03 1.46E-01 2.16E-03 0.00E+00 0.00E+00 1.53E-01 
1.500E-01 2.30E-03 1.33E-01 5.70E-04 0.00E+00 0.00E+00 1.35E-01 
2.000E-01 1.31E-03 1.22E-01 2.25E-04 0.00E+00 0.00E+00 1.23E-01 
3.000E-01 5.85E-04 1.06E-01 6.34E-05 0.00E+00 0.00E+00 1.07E-01 
4.000E-01 3.30E-04 9.52E-02 2.71E-05 0.00E+00 0.00E+00 9.56E-02 
5.000E-01 2.11E-04 8.70E-02 1.46E-05 0.00E+00 0.00E+00 8.72E-02 
6.000E-01 1.47E-04 8.05E-02 9.09E-06 0.00E+00 0.00E+00 8.06E-02 
8.000E-01 8.26E-05 7.07E-02 4.59E-06 0.00E+00 0.00E+00 7.08E-02 
1.000E+00 5.29E-05 6.36E-02 2.85E-06 0.00E+00 0.00E+00 6.37E-02 
1.022E+00 5.07E-05 6.30E-02 2.65E-06 0.00E+00 0.00E+00 6.30E-02 
1.250E+00 3.39E-05 5.69E-02 1.80E-06 1.75E-05 0.00E+00 5.69E-02 
1.500E+00 2.35E-05 5.17E-02 1.31E-06 9.68E-05 0.00E+00 5.18E-02 
2.000E+00 1.32E-05 4.41E-02 8.22E-07 3.85E-04 0.00E+00 4.45E-02 
2.044E+00 1.27E-05 4.36E-02 7.95E-07 4.15E-04 0.00E+00 4.40E-02 
3.000E+00 5.88E-06 3.47E-02 4.60E-07 1.10E-03 1.21E-05 3.58E-02 
4.000E+00 3.31E-06 2.90E-02 3.16E-07 1.79E-03 4.96E-05 3.08E-02 
5.000E+00 2.12E-06 2.50E-02 2.40E-07 2.40E-03 9.88E-05 2.75E-02 
6.000E+00 1.47E-06 2.21E-02 1.93E-07 2.95E-03 1.52E-04 2.52E-02 
7.000E+00 1.08E-06 1.99E-02 1.61E-07 3.44E-03 2.05E-04 2.35E-02 
8.000E+00 8.27E-07 1.81E-02 1.38E-07 3.88E-03 2.56E-04 2.22E-02 
9.000E+00 6.54E-07 1.66E-02 1.21E-07 4.28E-03 3.05E-04 2.12E-02 
1.000E+01 5.29E-07 1.54E-02 1.08E-07 4.64E-03 3.52E-04 2.04E-02 
1.100E+01 4.37E-07 1.44E-02 9.69E-08 4.98E-03 3.97E-04 1.97E-02 
1.200E+01 3.68E-07 1.35E-02 8.81E-08 5.28E-03 4.39E-04 1.92E-02 
1.300E+01 3.13E-07 1.27E-02 8.08E-08 5.56E-03 4.79E-04 1.87E-02 
1.400E+01 2.70E-07 1.20E-02 7.45E-08 5.82E-03 5.16E-04 1.83E-02 
1.500E+01 2.35E-07 1.14E-02 6.92E-08 6.07E-03 5.52E-04 1.80E-02 
1.600E+01 2.07E-07 1.09E-02 6.46E-08 6.30E-03 5.87E-04 1.77E-02 
1.800E+01 1.63E-07 9.92E-03 5.70E-08 6.72E-03 6.51E-04 1.73E-02 
2.000E+01 1.32E-07 9.15E-03 5.10E-08 7.10E-03 7.09E-04 1.70E-02 
2.200E+01 1.09E-07 8.50E-03 4.61E-08 7.45E-03 7.64E-04 1.67E-02 
2.400E+01 9.19E-08 7.94E-03 4.21E-08 7.76E-03 8.13E-04 1.65E-02 
2.600E+01 7.83E-08 7.46E-03 3.87E-08 8.05E-03 8.60E-04 1.64E-02 
2.800E+01 6.75E-08 7.03E-03 3.58E-08 8.31E-03 9.03E-04 1.62E-02 
3.000E+01 5.88E-08 6.66E-03 3.33E-08 8.56E-03 9.44E-04 1.62E-02 
4.000E+01 3.31E-08 5.29E-03 2.48E-08 9.56E-03 1.11E-03 1.60E-02 
5.000E+01 2.12E-08 4.42E-03 1.97E-08 1.03E-02 1.25E-03 1.60E-02 
6.000E+01 1.47E-08 3.81E-03 1.64E-08 1.09E-02 1.35E-03 1.61E-02 
8.000E+01 8.27E-09 3.00E-03 1.22E-08 1.18E-02 1.52E-03 1.64E-02 
1.000E+02 5.29E-09 2.49E-03 9.74E-09 1.25E-02 1.65E-03 1.67E-02 
1.500E+02 2.35E-09 1.77E-03 6.47E-09 1.36E-02 1.86E-03 1.73E-02 
2.000E+02 1.32E-09 1.39E-03 4.84E-09 1.43E-02 2.01E-03 1.77E-02 
3.000E+02 5.88E-10 9.86E-04 3.22E-09 1.52E-02 2.19E-03 1.83E-02 
4.000E+02 3.31E-10 7.72E-04 2.41E-09 1.57E-02 2.30E-03 1.87E-02 
5.000E+02 2.12E-10 6.39E-04 1.93E-09 1.60E-02 2.38E-03 1.90E-02 
6.000E+02 1.47E-10 5.47E-04 1.61E-09 1.62E-02 2.44E-03 1.92E-02 
8.000E+02 8.27E-11 4.27E-04 1.21E-09 1.65E-02 2.52E-03 1.95E-02 
1.000E+03 5.29E-11 3.52E-04 9.64E-10 1.67E-02 2.58E-03 1.97E-02 
1.500E+03 2.35E-11 2.46E-04 6.43E-10 1.71E-02 2.66E-03 2.00E-02 
2.000E+03 1.32E-11 1.90E-04 4.82E-10 1.72E-02 2.71E-03 2.01E-02 
3.000E+03 5.88E-12 1.32E-04 3.21E-10 1.74E-02 2.76E-03 2.03E-02 
4.000E+03 3.31E-12 1.02E-04 2.41E-10 1.75E-02 2.79E-03 2.04E-02 
5.000E+03 2.12E-12 8.34E-05 1.93E-10 1.76E-02 2.81E-03 2.05E-02 
6.000E+03 1.47E-12 7.07E-05 1.61E-10 1.76E-02 2.82E-03 2.05E-02 
8.000E+03 8.27E-13 5.45E-05 1.20E-10 1.77E-02 2.84E-03 2.06E-02 
1.000E+04 5.29E-13 4.45E-05 9.63E-11 1.77E-02 2.85E-03 2.06E-02 
1.500E+04 2.35E-13 3.07E-05 6.42E-11 1.77E-02 2.87E-03 2.06E-02 
2.000E+04 1.32E-13 2.36E-05 4.82E-11 1.78E-02 2.87E-03 2.07E-02 
3.000E+04 5.88E-14 1.63E-05 3.21E-11 1.78E-02 2.88E-03 2.07E-02 
4.000E+04 3.31E-14 1.25E-05 2.41E-11 1.78E-02 2.89E-03 2.07E-02 
5.000E+04 2.12E-14 1.02E-05 1.93E-11 1.78E-02 2.89E-03 2.07E-02 
6.000E+04 1.47E-14 8.61E-06 1.61E-11 1.78E-02 2.89E-03 2.07E-02 
8.000E+04 8.27E-15 6.61E-06 1.20E-11 1.78E-02 2.90E-03 2.07E-02 
1.000E+05 5.29E-15 5.37E-06 9.63E-12 1.78E-02 2.90E-03 2.07E-02 
