Density

2.6989

Photon    Coherent Incoher. Photoel. Nuclear  Electron Tot. w/  
Energy    Scatter. Scatter. Absorb.  Pr. Prd. Pr. Prd. Coherent 

1.000E-03 2.26E+00 1.43E-02 1.18E+03 0.00E+00 0.00E+00 1.19E+03 
1.500E-03 2.04E+00 2.48E-02 4.00E+02 0.00E+00 0.00E+00 4.02E+02 
1.560E-03 2.01E+00 2.59E-02 3.95E+03 0.00E+00 0.00E+00 3.95E+03 
1.560E-03 2.01E+00 2.59E-02 3.95E+03 0.00E+00 0.00E+00 3.95E+03 
2.000E-03 1.84E+00 3.37E-02 2.26E+03 0.00E+00 0.00E+00 2.26E+03 
3.000E-03 1.52E+00 4.73E-02 7.87E+02 0.00E+00 0.00E+00 7.88E+02 
4.000E-03 1.30E+00 5.81E-02 3.59E+02 0.00E+00 0.00E+00 3.60E+02 
5.000E-03 1.12E+00 6.79E-02 1.92E+02 0.00E+00 0.00E+00 1.93E+02 
6.000E-03 9.64E-01 7.70E-02 1.14E+02 0.00E+00 0.00E+00 1.15E+02 
8.000E-03 7.23E-01 9.29E-02 4.95E+01 0.00E+00 0.00E+00 5.03E+01 
1.000E-02 5.51E-01 1.06E-01 2.56E+01 0.00E+00 0.00E+00 2.62E+01 
1.500E-02 3.14E-01 1.27E-01 7.51E+00 0.00E+00 0.00E+00 7.96E+00 
2.000E-02 2.05E-01 1.37E-01 3.10E+00 0.00E+00 0.00E+00 3.44E+00 
3.000E-02 1.10E-01 1.46E-01 8.72E-01 0.00E+00 0.00E+00 1.13E+00 
4.000E-02 6.86E-02 1.49E-01 3.50E-01 0.00E+00 0.00E+00 5.68E-01 
5.000E-02 4.68E-02 1.50E-01 1.72E-01 0.00E+00 0.00E+00 3.68E-01 
6.000E-02 3.39E-02 1.48E-01 9.56E-02 0.00E+00 0.00E+00 2.78E-01 
8.000E-02 2.00E-02 1.44E-01 3.78E-02 0.00E+00 0.00E+00 2.02E-01 
1.000E-01 1.32E-02 1.39E-01 1.84E-02 0.00E+00 0.00E+00 1.70E-01 
1.500E-01 6.12E-03 1.27E-01 4.99E-03 0.00E+00 0.00E+00 1.38E-01 
2.000E-01 3.50E-03 1.17E-01 2.00E-03 0.00E+00 0.00E+00 1.22E-01 
3.000E-01 1.58E-03 1.02E-01 5.74E-04 0.00E+00 0.00E+00 1.04E-01 
4.000E-01 8.93E-04 9.16E-02 2.48E-04 0.00E+00 0.00E+00 9.28E-02 
5.000E-01 5.73E-04 8.37E-02 1.34E-04 0.00E+00 0.00E+00 8.45E-02 
6.000E-01 3.99E-04 7.75E-02 8.40E-05 0.00E+00 0.00E+00 7.80E-02 
8.000E-01 2.25E-04 6.81E-02 4.25E-05 0.00E+00 0.00E+00 6.84E-02 
1.000E+00 1.44E-04 6.13E-02 2.64E-05 0.00E+00 0.00E+00 6.15E-02 
1.022E+00 1.38E-04 6.06E-02 2.49E-05 0.00E+00 0.00E+00 6.08E-02 
1.250E+00 9.21E-05 5.48E-02 1.69E-05 3.13E-05 0.00E+00 5.50E-02 
1.500E+00 6.39E-05 4.98E-02 1.22E-05 1.71E-04 0.00E+00 5.01E-02 
2.000E+00 3.60E-05 4.25E-02 7.63E-06 6.75E-04 0.00E+00 4.32E-02 
2.044E+00 3.44E-05 4.20E-02 7.38E-06 7.27E-04 0.00E+00 4.28E-02 
3.000E+00 1.60E-05 3.35E-02 4.22E-06 1.92E-03 1.17E-05 3.54E-02 
4.000E+00 9.00E-06 2.79E-02 2.88E-06 3.10E-03 4.78E-05 3.11E-02 
5.000E+00 5.76E-06 2.41E-02 2.18E-06 4.15E-03 9.52E-05 2.84E-02 
6.000E+00 4.00E-06 2.13E-02 1.74E-06 5.10E-03 1.46E-04 2.66E-02 
7.000E+00 2.94E-06 1.91E-02 1.45E-06 5.94E-03 1.97E-04 2.53E-02 
8.000E+00 2.25E-06 1.74E-02 1.24E-06 6.69E-03 2.47E-04 2.44E-02 
9.000E+00 1.78E-06 1.60E-02 1.09E-06 7.38E-03 2.94E-04 2.37E-02 
1.000E+01 1.44E-06 1.48E-02 9.66E-07 8.00E-03 3.39E-04 2.32E-02 
1.100E+01 1.19E-06 1.38E-02 8.69E-07 8.56E-03 3.82E-04 2.28E-02 
1.200E+01 1.00E-06 1.30E-02 7.89E-07 9.08E-03 4.23E-04 2.25E-02 
1.300E+01 8.52E-07 1.22E-02 7.23E-07 9.56E-03 4.61E-04 2.23E-02 
1.400E+01 7.35E-07 1.16E-02 6.67E-07 1.00E-02 4.97E-04 2.21E-02 
1.500E+01 6.40E-07 1.10E-02 6.19E-07 1.04E-02 5.32E-04 2.19E-02 
1.600E+01 5.62E-07 1.05E-02 5.77E-07 1.08E-02 5.65E-04 2.18E-02 
1.800E+01 4.44E-07 9.56E-03 5.09E-07 1.15E-02 6.26E-04 2.17E-02 
2.000E+01 3.60E-07 8.82E-03 4.55E-07 1.22E-02 6.82E-04 2.17E-02 
