Density

1.050

Photon    Coherent Incoher. Photoel. Nuclear  Electron Tot. w/  Tot. wo/ 
Energy    Scatter. Scatter. Absorb.  Pr. Prd. Pr. Prd. Coherent Coherent 

1.000E-03 1.336E+00 1.342E-02 3.707E+03 0.000E+00 0.000E+00 3.708E+03 3.707E+03 
1.035E-03 1.328E+00 1.427E-02 3.378E+03 0.000E+00 0.000E+00 3.379E+03 3.378E+03 
1.072E-03 1.320E+00 1.518E-02 3.078E+03 0.000E+00 0.000E+00 3.079E+03 3.078E+03 
1.072E-03 1.320E+00 1.518E-02 3.090E+03 0.000E+00 0.000E+00 3.091E+03 3.090E+03 
1.500E-03 1.229E+00 2.702E-02 1.248E+03 0.000E+00 0.000E+00 1.249E+03 1.248E+03 
2.000E-03 1.106E+00 4.208E-02 5.578E+02 0.000E+00 0.000E+00 5.590E+02 5.579E+02 
2.145E-03 1.070E+00 4.647E-02 4.567E+02 0.000E+00 0.000E+00 4.578E+02 4.567E+02 
2.145E-03 1.070E+00 4.647E-02 4.656E+02 0.000E+00 0.000E+00 4.667E+02 4.656E+02 
2.303E-03 1.031E+00 5.116E-02 3.804E+02 0.000E+00 0.000E+00 3.815E+02 3.805E+02 
2.472E-03 9.894E-01 5.611E-02 3.105E+02 0.000E+00 0.000E+00 3.115E+02 3.106E+02 
2.472E-03 9.894E-01 5.611E-02 3.161E+02 0.000E+00 0.000E+00 3.171E+02 3.161E+02 
3.000E-03 8.675E-01 7.068E-02 1.808E+02 0.000E+00 0.000E+00 1.818E+02 1.809E+02 
3.607E-03 7.438E-01 8.544E-02 1.053E+02 0.000E+00 0.000E+00 1.061E+02 1.053E+02 
3.607E-03 7.438E-01 8.544E-02 1.063E+02 0.000E+00 0.000E+00 1.072E+02 1.064E+02 
4.000E-03 6.743E-01 9.380E-02 7.830E+01 0.000E+00 0.000E+00 7.907E+01 7.839E+01 
4.038E-03 6.679E-01 9.456E-02 7.613E+01 0.000E+00 0.000E+00 7.689E+01 7.622E+01 
4.038E-03 6.679E-01 9.456E-02 7.974E+01 0.000E+00 0.000E+00 8.051E+01 7.984E+01 
5.000E-03 5.317E-01 1.113E-01 4.233E+01 0.000E+00 0.000E+00 4.297E+01 4.244E+01 
6.000E-03 4.292E-01 1.244E-01 2.447E+01 0.000E+00 0.000E+00 2.502E+01 2.459E+01 
8.000E-03 2.991E-01 1.419E-01 1.019E+01 0.000E+00 0.000E+00 1.064E+01 1.034E+01 
1.000E-02 2.239E-01 1.527E-01 5.124E+00 0.000E+00 0.000E+00 5.501E+00 5.277E+00 
1.500E-02 1.304E-01 1.677E-01 1.441E+00 0.000E+00 0.000E+00 1.739E+00 1.608E+00 
2.000E-02 8.663E-02 1.753E-01 5.784E-01 0.000E+00 0.000E+00 8.403E-01 7.537E-01 
3.000E-02 4.582E-02 1.809E-01 1.573E-01 0.000E+00 0.000E+00 3.840E-01 3.381E-01 
4.000E-02 2.807E-02 1.807E-01 6.190E-02 0.000E+00 0.000E+00 2.707E-01 2.426E-01 
5.000E-02 1.892E-02 1.783E-01 2.992E-02 0.000E+00 0.000E+00 2.271E-01 2.082E-01 
6.000E-02 1.360E-02 1.750E-01 1.649E-02 0.000E+00 0.000E+00 2.051E-01 1.915E-01 
8.000E-02 7.981E-03 1.678E-01 6.428E-03 0.000E+00 0.000E+00 1.822E-01 1.742E-01 
1.000E-01 5.229E-03 1.607E-01 3.097E-03 0.000E+00 0.000E+00 1.690E-01 1.638E-01 
1.500E-01 2.387E-03 1.456E-01 8.279E-04 0.000E+00 0.000E+00 1.488E-01 1.464E-01 
2.000E-01 1.357E-03 1.338E-01 3.293E-04 0.000E+00 0.000E+00 1.354E-01 1.341E-01 
3.000E-01 6.080E-04 1.165E-01 9.371E-05 0.000E+00 0.000E+00 1.172E-01 1.166E-01 
4.000E-01 3.430E-04 1.045E-01 4.029E-05 0.000E+00 0.000E+00 1.049E-01 1.045E-01 
5.000E-01 2.198E-04 9.549E-02 2.177E-05 0.000E+00 0.000E+00 9.573E-02 9.551E-02 
6.000E-01 1.528E-04 8.834E-02 1.358E-05 0.000E+00 0.000E+00 8.851E-02 8.835E-02 
8.000E-01 8.601E-05 7.763E-02 6.863E-06 0.000E+00 0.000E+00 7.773E-02 7.764E-02 
1.000E+00 5.506E-05 6.982E-02 4.266E-06 0.000E+00 0.000E+00 6.988E-02 6.983E-02 
1.022E+00 5.273E-05 6.909E-02 3.988E-06 0.000E+00 0.000E+00 6.914E-02 6.909E-02 
1.250E+00 3.526E-05 6.243E-02 2.706E-06 1.743E-05 0.000E+00 6.249E-02 6.245E-02 
1.500E+00 2.448E-05 5.674E-02 1.962E-06 9.629E-05 0.000E+00 5.686E-02 5.684E-02 
2.000E+00 1.377E-05 4.843E-02 1.230E-06 3.831E-04 0.000E+00 4.883E-02 4.881E-02 
2.044E+00 1.318E-05 4.782E-02 1.190E-06 4.129E-04 0.000E+00 4.825E-02 4.823E-02 
3.000E+00 6.122E-06 3.809E-02 6.844E-07 1.095E-03 1.333E-05 3.921E-02 3.920E-02 
4.000E+00 3.444E-06 3.178E-02 4.685E-07 1.776E-03 5.442E-05 3.361E-02 3.361E-02 
5.000E+00 2.204E-06 2.744E-02 3.546E-07 2.382E-03 1.084E-04 2.994E-02 2.993E-02 
6.000E+00 1.530E-06 2.426E-02 2.847E-07 2.927E-03 1.665E-04 2.735E-02 2.735E-02 
