Density

0.92

Photon    Coherent Incoher. Photoel. Nuclear  Electron Tot. w/  Tot. wo/ 
Energy    Scatter. Scatter. Absorb.  Pr. Prd. Pr. Prd. Coherent Coherent 

1.000E-03 1.114E+00 1.485E-02 2.561E+03 0.000E+00 0.000E+00 2.562E+03 2.561E+03 
1.500E-03 1.002E+00 2.954E-02 8.333E+02 0.000E+00 0.000E+00 8.343E+02 8.333E+02 
2.000E-03 8.809E-01 4.544E-02 3.657E+02 0.000E+00 0.000E+00 3.666E+02 3.657E+02 
2.822E-03 6.985E-01 6.996E-02 1.331E+02 0.000E+00 0.000E+00 1.339E+02 1.332E+02 
2.822E-03 6.985E-01 6.996E-02 1.352E+02 0.000E+00 0.000E+00 1.359E+02 1.352E+02 
3.000E-03 6.641E-01 7.474E-02 1.129E+02 0.000E+00 0.000E+00 1.136E+02 1.129E+02 
4.000E-03 5.052E-01 9.756E-02 4.762E+01 0.000E+00 0.000E+00 4.823E+01 4.772E+01 
5.000E-03 3.957E-01 1.141E-01 2.414E+01 0.000E+00 0.000E+00 2.465E+01 2.425E+01 
6.000E-03 3.201E-01 1.261E-01 1.377E+01 0.000E+00 0.000E+00 1.421E+01 1.389E+01 
8.000E-03 2.267E-01 1.420E-01 5.617E+00 0.000E+00 0.000E+00 5.986E+00 5.759E+00 
1.000E-02 1.727E-01 1.523E-01 2.779E+00 0.000E+00 0.000E+00 3.104E+00 2.932E+00 
1.500E-02 1.026E-01 1.673E-01 7.613E-01 0.000E+00 0.000E+00 1.031E+00 9.286E-01 
2.000E-02 6.791E-02 1.750E-01 3.003E-01 0.000E+00 0.000E+00 5.432E-01 4.752E-01 
3.000E-02 3.549E-02 1.800E-01 7.987E-02 0.000E+00 0.000E+00 2.953E-01 2.599E-01 
4.000E-02 2.163E-02 1.793E-01 3.099E-02 0.000E+00 0.000E+00 2.319E-01 2.103E-01 
5.000E-02 1.452E-02 1.765E-01 1.483E-02 0.000E+00 0.000E+00 2.059E-01 1.914E-01 
6.000E-02 1.040E-02 1.731E-01 8.105E-03 0.000E+00 0.000E+00 1.916E-01 1.812E-01 
8.000E-02 6.074E-03 1.657E-01 3.124E-03 0.000E+00 0.000E+00 1.749E-01 1.688E-01 
1.000E-01 3.964E-03 1.586E-01 1.493E-03 0.000E+00 0.000E+00 1.640E-01 1.601E-01 
1.500E-01 1.801E-03 1.435E-01 3.942E-04 0.000E+00 0.000E+00 1.457E-01 1.439E-01 
2.000E-01 1.021E-03 1.318E-01 1.556E-04 0.000E+00 0.000E+00 1.329E-01 1.319E-01 
3.000E-01 4.568E-04 1.148E-01 4.387E-05 0.000E+00 0.000E+00 1.153E-01 1.148E-01 
4.000E-01 2.575E-04 1.029E-01 1.877E-05 0.000E+00 0.000E+00 1.032E-01 1.029E-01 
5.000E-01 1.650E-04 9.403E-02 1.011E-05 0.000E+00 0.000E+00 9.420E-02 9.404E-02 
6.000E-01 1.146E-04 8.698E-02 6.296E-06 0.000E+00 0.000E+00 8.711E-02 8.699E-02 
8.000E-01 6.451E-05 7.642E-02 3.177E-06 0.000E+00 0.000E+00 7.649E-02 7.643E-02 
1.000E+00 4.129E-05 6.873E-02 1.975E-06 0.000E+00 0.000E+00 6.877E-02 6.873E-02 
1.022E+00 3.954E-05 6.802E-02 1.833E-06 0.000E+00 0.000E+00 6.806E-02 6.802E-02 
1.250E+00 2.644E-05 6.146E-02 1.245E-06 1.472E-05 0.000E+00 6.150E-02 6.148E-02 
1.500E+00 1.836E-05 5.587E-02 9.033E-07 8.164E-05 0.000E+00 5.597E-02 5.595E-02 
2.000E+00 1.033E-05 4.767E-02 5.686E-07 3.254E-04 0.000E+00 4.801E-02 4.800E-02 
2.044E+00 9.886E-06 4.708E-02 5.501E-07 3.507E-04 0.000E+00 4.744E-02 4.743E-02 
3.000E+00 4.590E-06 3.750E-02 3.180E-07 9.312E-04 1.312E-05 3.845E-02 3.845E-02 
4.000E+00 2.582E-06 3.128E-02 2.184E-07 1.511E-03 5.357E-05 3.285E-02 3.285E-02 
5.000E+00 1.653E-06 2.702E-02 1.657E-07 2.028E-03 1.068E-04 2.915E-02 2.915E-02 
6.000E+00 1.148E-06 2.388E-02 1.332E-07 2.493E-03 1.639E-04 2.654E-02 2.654E-02 
