Density

19.32

Photon    Coherent Incoher. Photoel. Nuclear  Electron Tot. w/  
Energy    Scatter. Scatter. Absorb.  Pr. Prd. Pr. Prd. Coherent 

1.000E-03 1.23E+01 3.27E-03 4.64E+03 0.00E+00 0.00E+00 4.65E+03 
1.500E-03 1.18E+01 6.07E-03 2.08E+03 0.00E+00 0.00E+00 2.09E+03 
2.000E-03 1.13E+01 8.96E-03 1.13E+03 0.00E+00 0.00E+00 1.14E+03 
2.206E-03 1.10E+01 1.01E-02 9.86E+02 0.00E+00 0.00E+00 9.97E+02 
2.206E-03 1.10E+01 1.01E-02 9.86E+02 0.00E+00 0.00E+00 9.97E+02 
2.248E-03 1.10E+01 1.04E-02 1.48E+03 0.00E+00 0.00E+00 1.49E+03 
2.291E-03 1.09E+01 1.06E-02 2.21E+03 0.00E+00 0.00E+00 2.22E+03 
2.291E-03 1.09E+01 1.06E-02 2.21E+03 0.00E+00 0.00E+00 2.22E+03 
2.507E-03 1.07E+01 1.19E-02 2.27E+03 0.00E+00 0.00E+00 2.28E+03 
2.743E-03 1.04E+01 1.32E-02 2.53E+03 0.00E+00 0.00E+00 2.54E+03 
2.743E-03 1.04E+01 1.32E-02 2.53E+03 0.00E+00 0.00E+00 2.54E+03 
3.000E-03 1.01E+01 1.46E-02 2.04E+03 0.00E+00 0.00E+00 2.05E+03 
3.148E-03 9.94E+00 1.54E-02 1.92E+03 0.00E+00 0.00E+00 1.93E+03 
3.148E-03 9.94E+00 1.54E-02 1.92E+03 0.00E+00 0.00E+00 1.93E+03 
3.283E-03 9.79E+00 1.61E-02 1.74E+03 0.00E+00 0.00E+00 1.75E+03 
3.425E-03 9.63E+00 1.69E-02 1.64E+03 0.00E+00 0.00E+00 1.65E+03 
3.425E-03 9.63E+00 1.69E-02 1.64E+03 0.00E+00 0.00E+00 1.65E+03 
4.000E-03 9.01E+00 1.99E-02 1.13E+03 0.00E+00 0.00E+00 1.14E+03 
5.000E-03 8.03E+00 2.50E-02 6.58E+02 0.00E+00 0.00E+00 6.66E+02 
6.000E-03 7.19E+00 2.99E-02 4.18E+02 0.00E+00 0.00E+00 4.25E+02 
8.000E-03 5.85E+00 3.88E-02 2.01E+02 0.00E+00 0.00E+00 2.07E+02 
1.000E-02 4.84E+00 4.63E-02 1.13E+02 0.00E+00 0.00E+00 1.18E+02 
1.192E-02 4.08E+00 5.24E-02 1.83E+02 0.00E+00 0.00E+00 1.87E+02 
1.192E-02 4.08E+00 5.24E-02 1.83E+02 0.00E+00 0.00E+00 1.87E+02 
1.279E-02 3.79E+00 5.48E-02 1.51E+02 0.00E+00 0.00E+00 1.55E+02 
1.373E-02 3.51E+00 5.72E-02 1.25E+02 0.00E+00 0.00E+00 1.28E+02 
1.373E-02 3.51E+00 5.72E-02 1.25E+02 0.00E+00 0.00E+00 1.28E+02 
1.404E-02 3.43E+00 5.80E-02 1.64E+02 0.00E+00 0.00E+00 1.67E+02 
1.435E-02 3.34E+00 5.88E-02 1.56E+02 0.00E+00 0.00E+00 1.59E+02 
1.435E-02 3.34E+00 5.88E-02 1.56E+02 0.00E+00 0.00E+00 1.59E+02 
1.500E-02 3.18E+00 6.04E-02 1.60E+02 0.00E+00 0.00E+00 1.64E+02 
2.000E-02 2.24E+00 7.05E-02 7.65E+01 0.00E+00 0.00E+00 7.88E+01 
3.000E-02 1.32E+00 8.43E-02 2.61E+01 0.00E+00 0.00E+00 2.75E+01 
4.000E-02 8.80E-01 9.23E-02 1.20E+01 0.00E+00 0.00E+00 1.30E+01 
5.000E-02 6.24E-01 9.68E-02 6.54E+00 0.00E+00 0.00E+00 7.26E+00 
6.000E-02 4.67E-01 9.94E-02 3.96E+00 0.00E+00 0.00E+00 4.53E+00 
8.000E-02 2.94E-01 1.01E-01 1.79E+00 0.00E+00 0.00E+00 2.19E+00 
8.072E-02 2.89E-01 1.01E-01 1.75E+00 0.00E+00 0.00E+00 2.14E+00 
8.072E-02 2.89E-01 1.01E-01 1.75E+00 0.00E+00 0.00E+00 2.14E+00 
1.000E-01 2.02E-01 1.01E-01 4.86E+00 0.00E+00 0.00E+00 5.16E+00 
1.500E-01 9.95E-02 9.65E-02 1.66E+00 0.00E+00 0.00E+00 1.86E+00 
2.000E-01 5.93E-02 9.11E-02 7.71E-01 0.00E+00 0.00E+00 9.22E-01 
3.000E-01 2.83E-02 8.16E-02 2.65E-01 0.00E+00 0.00E+00 3.74E-01 
4.000E-01 1.65E-02 7.42E-02 1.27E-01 0.00E+00 0.00E+00 2.18E-01 
5.000E-01 1.08E-02 6.83E-02 7.39E-02 0.00E+00 0.00E+00 1.53E-01 
6.000E-01 7.59E-03 6.35E-02 4.83E-02 0.00E+00 0.00E+00 1.19E-01 
8.000E-01 4.35E-03 5.61E-02 2.56E-02 0.00E+00 0.00E+00 8.60E-02 
1.000E+00 2.81E-03 5.06E-02 1.61E-02 0.00E+00 0.00E+00 6.95E-02 
1.022E+00 2.69E-03 5.01E-02 1.54E-02 0.00E+00 0.00E+00 6.82E-02 
1.250E+00 1.81E-03 4.54E-02 1.04E-02 3.60E-04 0.00E+00 5.79E-02 
1.500E+00 1.27E-03 4.13E-02 7.40E-03 1.70E-03 0.00E+00 5.17E-02 
2.000E+00 7.16E-04 3.53E-02 4.48E-03 5.19E-03 0.00E+00 4.57E-02 
2.044E+00 6.85E-04 3.49E-02 4.32E-03 5.50E-03 0.00E+00 4.54E-02 
3.000E+00 3.20E-04 2.78E-02 2.34E-03 1.15E-02 9.72E-06 4.20E-02 
4.000E+00 1.80E-04 2.32E-02 1.54E-03 1.67E-02 3.96E-05 4.17E-02 
5.000E+00 1.15E-04 2.01E-02 1.13E-03 2.10E-02 7.88E-05 4.24E-02 
6.000E+00 8.01E-05 1.77E-02 8.83E-04 2.47E-02 1.21E-04 4.36E-02 
7.000E+00 5.89E-05 1.59E-02 7.23E-04 2.80E-02 1.63E-04 4.49E-02 
8.000E+00 4.51E-05 1.45E-02 6.11E-04 3.10E-02 2.03E-04 4.63E-02 
9.000E+00 3.56E-05 1.33E-02 5.29E-04 3.37E-02 2.41E-04 4.78E-02 
1.000E+01 2.89E-05 1.24E-02 4.65E-04 3.61E-02 2.78E-04 4.93E-02 
1.100E+01 2.38E-05 1.15E-02 4.15E-04 3.84E-02 3.12E-04 5.07E-02 
1.200E+01 2.00E-05 1.08E-02 3.74E-04 4.05E-02 3.45E-04 5.21E-02 
1.300E+01 1.71E-05 1.02E-02 3.41E-04 4.25E-02 3.75E-04 5.34E-02 
1.400E+01 1.47E-05 9.63E-03 3.13E-04 4.44E-02 4.04E-04 5.48E-02 
1.500E+01 1.28E-05 9.14E-03 2.89E-04 4.61E-02 4.32E-04 5.60E-02 
1.600E+01 1.13E-05 8.71E-03 2.68E-04 4.77E-02 4.58E-04 5.72E-02 
1.800E+01 8.91E-06 7.96E-03 2.35E-04 5.07E-02 5.06E-04 5.94E-02 
2.000E+01 7.22E-06 7.34E-03 2.09E-04 5.33E-02 5.49E-04 6.14E-02 
