Density

1.02

Photon    Coherent Incoher. Photoel. Nuclear  Electron Tot. w/  Tot. wo/ 
Energy    Scatter. Scatter. Absorb.  Pr. Prd. Pr. Prd. Coherent Coherent 

1.000E-03 1.25E+00 1.43E-02 3.31E+03 0.00E+00 0.00E+00 3.31E+03 3.31E+03 
1.035E-03 1.24E+00 1.52E-02 3.01E+03 0.00E+00 0.00E+00 3.01E+03 3.01E+03 
1.072E-03 1.24E+00 1.62E-02 2.74E+03 0.00E+00 0.00E+00 2.74E+03 2.74E+03 
1.072E-03 1.24E+00 1.62E-02 2.75E+03 0.00E+00 0.00E+00 2.75E+03 2.75E+03 
1.500E-03 1.14E+00 2.87E-02 1.10E+03 0.00E+00 0.00E+00 1.10E+03 1.10E+03 
2.000E-03 1.02E+00 4.45E-02 4.91E+02 0.00E+00 0.00E+00 4.92E+02 4.91E+02 
2.145E-03 9.88E-01 4.91E-02 4.01E+02 0.00E+00 0.00E+00 4.02E+02 4.01E+02 
2.145E-03 9.88E-01 4.91E-02 4.06E+02 0.00E+00 0.00E+00 4.07E+02 4.06E+02 
2.303E-03 9.50E-01 5.39E-02 3.31E+02 0.00E+00 0.00E+00 3.32E+02 3.31E+02 
2.472E-03 9.10E-01 5.90E-02 2.70E+02 0.00E+00 0.00E+00 2.71E+02 2.70E+02 
2.472E-03 9.10E-01 5.90E-02 2.74E+02 0.00E+00 0.00E+00 2.75E+02 2.74E+02 
2.641E-03 8.71E-01 6.40E-02 2.26E+02 0.00E+00 0.00E+00 2.27E+02 2.26E+02 
2.822E-03 8.31E-01 6.92E-02 1.86E+02 0.00E+00 0.00E+00 1.87E+02 1.86E+02 
2.822E-03 8.31E-01 6.92E-02 1.88E+02 0.00E+00 0.00E+00 1.89E+02 1.88E+02 
3.000E-03 7.93E-01 7.40E-02 1.57E+02 0.00E+00 0.00E+00 1.58E+02 1.57E+02 
3.607E-03 6.77E-01 8.90E-02 9.13E+01 0.00E+00 0.00E+00 9.21E+01 9.14E+01 
3.607E-03 6.77E-01 8.90E-02 9.34E+01 0.00E+00 0.00E+00 9.42E+01 9.35E+01 
4.000E-03 6.13E-01 9.74E-02 6.88E+01 0.00E+00 0.00E+00 6.95E+01 6.89E+01 
5.000E-03 4.82E-01 1.15E-01 3.52E+01 0.00E+00 0.00E+00 3.58E+01 3.54E+01 
6.000E-03 3.89E-01 1.28E-01 2.03E+01 0.00E+00 0.00E+00 2.08E+01 2.04E+01 
8.000E-03 2.72E-01 1.45E-01 8.38E+00 0.00E+00 0.00E+00 8.80E+00 8.53E+00 
1.000E-02 2.04E-01 1.55E-01 4.19E+00 0.00E+00 0.00E+00 4.55E+00 4.35E+00 
1.500E-02 1.20E-01 1.70E-01 1.17E+00 0.00E+00 0.00E+00 1.46E+00 1.34E+00 
2.000E-02 7.94E-02 1.78E-01 4.65E-01 0.00E+00 0.00E+00 7.22E-01 6.43E-01 
3.000E-02 4.18E-02 1.83E-01 1.25E-01 0.00E+00 0.00E+00 3.50E-01 3.08E-01 
4.000E-02 2.56E-02 1.82E-01 4.91E-02 0.00E+00 0.00E+00 2.57E-01 2.32E-01 
5.000E-02 1.72E-02 1.80E-01 2.36E-02 0.00E+00 0.00E+00 2.21E-01 2.03E-01 
6.000E-02 1.24E-02 1.76E-01 1.30E-02 0.00E+00 0.00E+00 2.02E-01 1.89E-01 
8.000E-02 7.24E-03 1.69E-01 5.04E-03 0.00E+00 0.00E+00 1.81E-01 1.74E-01 
1.000E-01 4.74E-03 1.62E-01 2.42E-03 0.00E+00 0.00E+00 1.69E-01 1.64E-01 
1.500E-01 2.16E-03 1.47E-01 6.43E-04 0.00E+00 0.00E+00 1.49E-01 1.47E-01 
2.000E-01 1.23E-03 1.35E-01 2.55E-04 0.00E+00 0.00E+00 1.36E-01 1.35E-01 
3.000E-01 5.50E-04 1.17E-01 7.23E-05 0.00E+00 0.00E+00 1.18E-01 1.17E-01 
4.000E-01 3.10E-04 1.05E-01 3.10E-05 0.00E+00 0.00E+00 1.06E-01 1.05E-01 
5.000E-01 1.99E-04 9.61E-02 1.67E-05 0.00E+00 0.00E+00 9.63E-02 9.61E-02 
6.000E-01 1.38E-04 8.89E-02 1.04E-05 0.00E+00 0.00E+00 8.90E-02 8.89E-02 
8.000E-01 7.77E-05 7.81E-02 5.27E-06 0.00E+00 0.00E+00 7.82E-02 7.81E-02 
1.000E+00 4.97E-05 7.03E-02 3.27E-06 0.00E+00 0.00E+00 7.03E-02 7.03E-02 
1.022E+00 4.76E-05 6.95E-02 3.05E-06 0.00E+00 0.00E+00 6.96E-02 6.95E-02 
1.250E+00 3.19E-05 6.28E-02 2.07E-06 1.64E-05 0.00E+00 6.29E-02 6.28E-02 
1.500E+00 2.21E-05 5.71E-02 1.50E-06 9.06E-05 0.00E+00 5.72E-02 5.72E-02 
2.000E+00 1.24E-05 4.87E-02 9.44E-07 3.61E-04 0.00E+00 4.91E-02 4.91E-02 
2.044E+00 1.19E-05 4.81E-02 9.13E-07 3.89E-04 0.00E+00 4.85E-02 4.85E-02 
3.000E+00 5.53E-06 3.83E-02 5.26E-07 1.03E-03 1.34E-05 3.94E-02 3.94E-02 
4.000E+00 3.11E-06 3.20E-02 3.61E-07 1.67E-03 5.48E-05 3.37E-02 3.37E-02 
5.000E+00 1.99E-06 2.76E-02 2.73E-07 2.24E-03 1.09E-04 3.00E-02 3.00E-02 
6.000E+00 1.38E-06 2.44E-02 2.20E-07 2.76E-03 1.68E-04 2.73E-02 2.73E-02 