Density

1.03

Photon    Coherent Incoher. Photoel. Nuclear  Electron Tot. w/  Tot. wo/ 
Energy    Scatter. Scatter. Absorb.  Pr. Prd. Pr. Prd. Coherent Coherent 

1.000E-03 1.28E+00 1.40E-02 3.44E+03 0.00E+00 0.00E+00 3.44E+03 3.44E+03 
1.035E-03 1.27E+00 1.49E-02 3.14E+03 0.00E+00 0.00E+00 3.14E+03 3.14E+03 
1.072E-03 1.26E+00 1.59E-02 2.86E+03 0.00E+00 0.00E+00 2.86E+03 2.86E+03 
1.072E-03 1.26E+00 1.59E-02 2.86E+03 0.00E+00 0.00E+00 2.86E+03 2.86E+03 
1.500E-03 1.17E+00 2.82E-02 1.15E+03 0.00E+00 0.00E+00 1.15E+03 1.15E+03 
2.000E-03 1.05E+00 4.38E-02 5.13E+02 0.00E+00 0.00E+00 5.14E+02 5.13E+02 
2.145E-03 1.02E+00 4.83E-02 4.20E+02 0.00E+00 0.00E+00 4.21E+02 4.20E+02 
2.145E-03 1.02E+00 4.83E-02 4.24E+02 0.00E+00 0.00E+00 4.25E+02 4.24E+02 
2.303E-03 9.77E-01 5.31E-02 3.46E+02 0.00E+00 0.00E+00 3.47E+02 3.46E+02 
2.472E-03 9.37E-01 5.82E-02 2.82E+02 0.00E+00 0.00E+00 2.83E+02 2.83E+02 
2.472E-03 9.37E-01 5.82E-02 2.88E+02 0.00E+00 0.00E+00 2.89E+02 2.88E+02 
2.641E-03 8.98E-01 6.31E-02 2.38E+02 0.00E+00 0.00E+00 2.39E+02 2.38E+02 
2.822E-03 8.57E-01 6.83E-02 1.96E+02 0.00E+00 0.00E+00 1.97E+02 1.96E+02 
2.822E-03 8.57E-01 6.83E-02 1.99E+02 0.00E+00 0.00E+00 2.00E+02 1.99E+02 
3.000E-03 8.19E-01 7.31E-02 1.67E+02 0.00E+00 0.00E+00 1.68E+02 1.67E+02 
3.607E-03 7.00E-01 8.80E-02 9.72E+01 0.00E+00 0.00E+00 9.80E+01 9.73E+01 
3.607E-03 7.00E-01 8.80E-02 9.94E+01 0.00E+00 0.00E+00 1.00E+02 9.94E+01 
4.000E-03 6.34E-01 9.64E-02 7.32E+01 0.00E+00 0.00E+00 7.39E+01 7.33E+01 
5.000E-03 4.99E-01 1.14E-01 3.76E+01 0.00E+00 0.00E+00 3.82E+01 3.77E+01 
6.000E-03 4.03E-01 1.27E-01 2.16E+01 0.00E+00 0.00E+00 2.22E+01 2.18E+01 
8.000E-03 2.81E-01 1.44E-01 8.97E+00 0.00E+00 0.00E+00 9.39E+00 9.11E+00 
1.000E-02 2.11E-01 1.55E-01 4.49E+00 0.00E+00 0.00E+00 4.86E+00 4.64E+00 
1.500E-02 1.23E-01 1.70E-01 1.25E+00 0.00E+00 0.00E+00 1.55E+00 1.42E+00 
2.000E-02 8.18E-02 1.77E-01 5.01E-01 0.00E+00 0.00E+00 7.60E-01 6.78E-01 
3.000E-02 4.32E-02 1.82E-01 1.35E-01 0.00E+00 0.00E+00 3.61E-01 3.18E-01 
4.000E-02 2.64E-02 1.82E-01 5.30E-02 0.00E+00 0.00E+00 2.62E-01 2.35E-01 
5.000E-02 1.78E-02 1.80E-01 2.56E-02 0.00E+00 0.00E+00 2.23E-01 2.05E-01 
6.000E-02 1.28E-02 1.76E-01 1.40E-02 0.00E+00 0.00E+00 2.03E-01 1.90E-01 
8.000E-02 7.49E-03 1.69E-01 5.46E-03 0.00E+00 0.00E+00 1.82E-01 1.74E-01 
1.000E-01 4.90E-03 1.62E-01 2.62E-03 0.00E+00 0.00E+00 1.69E-01 1.64E-01 
1.500E-01 2.24E-03 1.46E-01 6.98E-04 0.00E+00 0.00E+00 1.49E-01 1.47E-01 
2.000E-01 1.27E-03 1.34E-01 2.77E-04 0.00E+00 0.00E+00 1.36E-01 1.35E-01 
3.000E-01 5.69E-04 1.17E-01 7.86E-05 0.00E+00 0.00E+00 1.18E-01 1.17E-01 
4.000E-01 3.21E-04 1.05E-01 3.37E-05 0.00E+00 0.00E+00 1.05E-01 1.05E-01 
5.000E-01 2.06E-04 9.60E-02 1.82E-05 0.00E+00 0.00E+00 9.62E-02 9.60E-02 
6.000E-01 1.43E-04 8.88E-02 1.14E-05 0.00E+00 0.00E+00 8.90E-02 8.88E-02 
8.000E-01 8.05E-05 7.80E-02 5.73E-06 0.00E+00 0.00E+00 7.81E-02 7.81E-02 
1.000E+00 5.15E-05 7.02E-02 3.57E-06 0.00E+00 0.00E+00 7.02E-02 7.02E-02 
1.022E+00 4.93E-05 6.95E-02 3.33E-06 0.00E+00 0.00E+00 6.95E-02 6.95E-02 
1.250E+00 3.30E-05 6.28E-02 2.26E-06 1.67E-05 0.00E+00 6.28E-02 6.28E-02 
1.500E+00 2.29E-05 5.70E-02 1.64E-06 9.25E-05 0.00E+00 5.72E-02 5.71E-02 
2.000E+00 1.29E-05 4.87E-02 1.03E-06 3.68E-04 0.00E+00 4.91E-02 4.91E-02 
2.044E+00 1.23E-05 4.81E-02 9.94E-07 3.97E-04 0.00E+00 4.85E-02 4.85E-02 
3.000E+00 5.73E-06 3.83E-02 5.73E-07 1.05E-03 1.34E-05 3.94E-02 3.94E-02 
4.000E+00 3.22E-06 3.19E-02 3.93E-07 1.71E-03 5.47E-05 3.37E-02 3.37E-02 
5.000E+00 2.06E-06 2.76E-02 2.97E-07 2.29E-03 1.09E-04 3.00E-02 3.00E-02 
6.000E+00 1.43E-06 2.44E-02 2.39E-07 2.81E-03 1.67E-04 2.74E-02 2.74E-02 