Density

1.145

Photon    Coherent Incoher. Photoel. Nuclear  Electron Tot. w/  Tot. wo/ 
Energy    Scatter. Scatter. Absorb.  Pr. Prd. Pr. Prd. Coherent Coherent 

1.000E-03 1.582E+00 1.430E-02 3.210E+03 0.000E+00 0.000E+00 3.211E+03 3.210E+03 
1.500E-03 1.434E+00 2.739E-02 1.081E+03 0.000E+00 0.000E+00 1.083E+03 1.082E+03 
2.000E-03 1.284E+00 4.128E-02 4.865E+02 0.000E+00 0.000E+00 4.878E+02 4.865E+02 
3.000E-03 1.016E+00 6.705E-02 1.531E+02 0.000E+00 0.000E+00 1.542E+02 1.532E+02 
4.000E-03 8.089E-01 8.763E-02 6.627E+01 0.000E+00 0.000E+00 6.717E+01 6.636E+01 
4.038E-03 8.020E-01 8.830E-02 6.446E+01 0.000E+00 0.000E+00 6.535E+01 6.455E+01 
4.038E-03 8.020E-01 8.830E-02 2.242E+02 0.000E+00 0.000E+00 2.251E+02 2.243E+02 
5.000E-03 6.556E-01 1.031E-01 1.291E+02 0.000E+00 0.000E+00 1.298E+02 1.292E+02 
6.000E-03 5.435E-01 1.146E-01 7.876E+01 0.000E+00 0.000E+00 7.942E+01 7.888E+01 
8.000E-03 3.983E-01 1.305E-01 3.566E+01 0.000E+00 0.000E+00 3.619E+01 3.579E+01 
1.000E-02 3.105E-01 1.410E-01 1.899E+01 0.000E+00 0.000E+00 1.944E+01 1.913E+01 
1.500E-02 1.898E-01 1.567E-01 5.876E+00 0.000E+00 0.000E+00 6.222E+00 6.033E+00 
2.000E-02 1.268E-01 1.651E-01 2.507E+00 0.000E+00 0.000E+00 2.799E+00 2.672E+00 
3.000E-02 6.741E-02 1.714E-01 7.364E-01 0.000E+00 0.000E+00 9.752E-01 9.077E-01 
4.000E-02 4.194E-02 1.717E-01 3.043E-01 0.000E+00 0.000E+00 5.180E-01 4.760E-01 
5.000E-02 2.869E-02 1.697E-01 1.522E-01 0.000E+00 0.000E+00 3.506E-01 3.219E-01 
6.000E-02 2.086E-02 1.668E-01 8.613E-02 0.000E+00 0.000E+00 2.738E-01 2.530E-01 
8.000E-02 1.242E-02 1.603E-01 3.485E-02 0.000E+00 0.000E+00 2.076E-01 1.952E-01 
1.000E-01 8.204E-03 1.538E-01 1.724E-02 0.000E+00 0.000E+00 1.793E-01 1.711E-01 
1.500E-01 3.796E-03 1.396E-01 4.802E-03 0.000E+00 0.000E+00 1.482E-01 1.444E-01 
2.000E-01 2.175E-03 1.284E-01 1.958E-03 0.000E+00 0.000E+00 1.325E-01 1.303E-01 
3.000E-01 9.829E-04 1.120E-01 5.728E-04 0.000E+00 0.000E+00 1.135E-01 1.125E-01 
4.000E-01 5.567E-04 1.004E-01 2.501E-04 0.000E+00 0.000E+00 1.012E-01 1.007E-01 
5.000E-01 3.574E-04 9.178E-02 1.363E-04 0.000E+00 0.000E+00 9.227E-02 9.192E-02 
6.000E-01 2.486E-04 8.492E-02 8.545E-05 0.000E+00 0.000E+00 8.526E-02 8.501E-02 
8.000E-01 1.401E-04 7.462E-02 4.338E-05 0.000E+00 0.000E+00 7.481E-02 7.467E-02 
1.000E+00 8.974E-05 6.711E-02 2.697E-05 0.000E+00 0.000E+00 6.723E-02 6.714E-02 
1.022E+00 8.594E-05 6.642E-02 2.551E-05 0.000E+00 0.000E+00 6.653E-02 6.644E-02 
1.250E+00 5.747E-05 6.002E-02 1.727E-05 2.194E-05 0.000E+00 6.012E-02 6.006E-02 
1.500E+00 3.992E-05 5.456E-02 1.248E-05 1.190E-04 0.000E+00 5.473E-02 5.469E-02 
2.000E+00 2.246E-05 4.655E-02 7.746E-06 4.701E-04 0.000E+00 4.705E-02 4.703E-02 
2.044E+00 2.151E-05 4.598E-02 7.486E-06 5.067E-04 0.000E+00 4.652E-02 4.649E-02 
3.000E+00 9.986E-06 3.663E-02 4.246E-06 1.334E-03 1.282E-05 3.799E-02 3.798E-02 
4.000E+00 5.619E-06 3.055E-02 2.876E-06 2.157E-03 5.233E-05 3.277E-02 3.277E-02 
5.000E+00 3.595E-06 2.639E-02 2.164E-06 2.888E-03 1.043E-04 2.938E-02 2.938E-02 
6.000E+00 2.497E-06 2.332E-02 1.729E-06 3.544E-03 1.601E-04 2.703E-02 2.703E-02 
