Density

1.03

Photon    Coherent Incoher. Photoel. Nuclear  Electron Tot. w/  Tot. wo/ 
Energy    Scatter. Scatter. Absorb.  Pr. Prd. Pr. Prd. Coherent Coherent 

1.000E-03 1.359E+00 1.330E-02 3.924E+03 0.000E+00 0.000E+00 3.926E+03 3.924E+03 
1.035E-03 1.351E+00 1.415E-02 3.577E+03 0.000E+00 0.000E+00 3.579E+03 3.578E+03 
1.072E-03 1.343E+00 1.505E-02 3.261E+03 0.000E+00 0.000E+00 3.263E+03 3.261E+03 
1.072E-03 1.343E+00 1.505E-02 3.285E+03 0.000E+00 0.000E+00 3.286E+03 3.285E+03 
1.500E-03 1.254E+00 2.688E-02 1.333E+03 0.000E+00 0.000E+00 1.334E+03 1.333E+03 
2.000E-03 1.134E+00 4.198E-02 5.970E+02 0.000E+00 0.000E+00 5.982E+02 5.971E+02 
2.822E-03 9.339E-01 6.601E-02 2.220E+02 0.000E+00 0.000E+00 2.230E+02 2.221E+02 
2.822E-03 9.339E-01 6.601E-02 2.279E+02 0.000E+00 0.000E+00 2.289E+02 2.279E+02 
3.000E-03 8.937E-01 7.079E-02 1.911E+02 0.000E+00 0.000E+00 1.921E+02 1.912E+02 
4.000E-03 6.961E-01 9.419E-02 8.191E+01 0.000E+00 0.000E+00 8.270E+01 8.201E+01 
5.000E-03 5.486E-01 1.120E-01 4.200E+01 0.000E+00 0.000E+00 4.266E+01 4.211E+01 
6.000E-03 4.421E-01 1.254E-01 2.416E+01 0.000E+00 0.000E+00 2.473E+01 2.429E+01 
8.000E-03 3.064E-01 1.433E-01 9.990E+00 0.000E+00 0.000E+00 1.044E+01 1.013E+01 
1.000E-02 2.283E-01 1.543E-01 4.992E+00 0.000E+00 0.000E+00 5.375E+00 5.146E+00 
1.500E-02 1.323E-01 1.692E-01 1.389E+00 0.000E+00 0.000E+00 1.690E+00 1.558E+00 
2.000E-02 8.786E-02 1.767E-01 5.534E-01 0.000E+00 0.000E+00 8.180E-01 7.301E-01 
3.000E-02 4.653E-02 1.822E-01 1.489E-01 0.000E+00 0.000E+00 3.777E-01 3.312E-01 
4.000E-02 2.850E-02 1.821E-01 5.820E-02 0.000E+00 0.000E+00 2.688E-01 2.403E-01 
5.000E-02 1.920E-02 1.797E-01 2.798E-02 0.000E+00 0.000E+00 2.269E-01 2.077E-01 
6.000E-02 1.380E-02 1.764E-01 1.536E-02 0.000E+00 0.000E+00 2.055E-01 1.917E-01 
8.000E-02 8.097E-03 1.691E-01 5.951E-03 0.000E+00 0.000E+00 1.831E-01 1.750E-01 
1.000E-01 5.305E-03 1.620E-01 2.854E-03 0.000E+00 0.000E+00 1.702E-01 1.649E-01 
1.500E-01 2.422E-03 1.468E-01 7.574E-04 0.000E+00 0.000E+00 1.500E-01 1.475E-01 
2.000E-01 1.376E-03 1.348E-01 2.998E-04 0.000E+00 0.000E+00 1.365E-01 1.351E-01 
3.000E-01 6.165E-04 1.175E-01 8.490E-05 0.000E+00 0.000E+00 1.182E-01 1.176E-01 
4.000E-01 3.478E-04 1.054E-01 3.639E-05 0.000E+00 0.000E+00 1.057E-01 1.054E-01 
5.000E-01 2.229E-04 9.626E-02 1.963E-05 0.000E+00 0.000E+00 9.650E-02 9.628E-02 
6.000E-01 1.549E-04 8.905E-02 1.223E-05 0.000E+00 0.000E+00 8.922E-02 8.907E-02 
8.000E-01 8.719E-05 7.826E-02 6.176E-06 0.000E+00 0.000E+00 7.836E-02 7.827E-02 
1.000E+00 5.582E-05 7.039E-02 3.839E-06 0.000E+00 0.000E+00 7.045E-02 7.039E-02 
1.022E+00 5.345E-05 6.964E-02 3.582E-06 0.000E+00 0.000E+00 6.970E-02 6.965E-02 
1.250E+00 3.574E-05 6.294E-02 2.431E-06 1.763E-05 0.000E+00 6.299E-02 6.296E-02 
1.500E+00 2.481E-05 5.720E-02 1.763E-06 9.745E-05 0.000E+00 5.732E-02 5.730E-02 
2.000E+00 1.396E-05 4.882E-02 1.108E-06 3.878E-04 0.000E+00 4.923E-02 4.921E-02 
2.044E+00 1.336E-05 4.821E-02 1.072E-06 4.179E-04 0.000E+00 4.864E-02 4.863E-02 
3.000E+00 6.205E-06 3.840E-02 6.184E-07 1.109E-03 1.344E-05 3.953E-02 3.952E-02 
4.000E+00 3.491E-06 3.204E-02 4.241E-07 1.798E-03 5.486E-05 3.389E-02 3.389E-02 
5.000E+00 2.234E-06 2.766E-02 3.214E-07 2.412E-03 1.093E-04 3.019E-02 3.019E-02 
6.000E+00 1.551E-06 2.445E-02 2.583E-07 2.964E-03 1.679E-04 2.758E-02 2.758E-02 
