Density

1.03

Photon    Coherent Incoher. Photoel. Nuclear  Electron Tot. w/  Tot. wo/ 
Energy    Scatter. Scatter. Absorb.  Pr. Prd. Pr. Prd. Coherent Coherent 

1.000E-03 1.37E+00 1.32E-02 3.96E+03 0.00E+00 0.00E+00 3.97E+03 3.96E+03 
1.035E-03 1.37E+00 1.41E-02 3.61E+03 0.00E+00 0.00E+00 3.62E+03 3.61E+03 
1.072E-03 1.36E+00 1.50E-02 3.29E+03 0.00E+00 0.00E+00 3.30E+03 3.29E+03 
1.072E-03 1.36E+00 1.50E-02 3.31E+03 0.00E+00 0.00E+00 3.31E+03 3.31E+03 
1.500E-03 1.27E+00 2.68E-02 1.34E+03 0.00E+00 0.00E+00 1.35E+03 1.34E+03 
2.000E-03 1.15E+00 4.18E-02 6.02E+02 0.00E+00 0.00E+00 6.04E+02 6.02E+02 
2.145E-03 1.11E+00 4.62E-02 4.93E+02 0.00E+00 0.00E+00 4.95E+02 4.93E+02 
2.145E-03 1.11E+00 4.62E-02 4.96E+02 0.00E+00 0.00E+00 4.97E+02 4.96E+02 
2.303E-03 1.07E+00 5.09E-02 4.05E+02 0.00E+00 0.00E+00 4.06E+02 4.05E+02 
2.472E-03 1.03E+00 5.59E-02 3.31E+02 0.00E+00 0.00E+00 3.32E+02 3.31E+02 
2.472E-03 1.03E+00 5.59E-02 3.32E+02 0.00E+00 0.00E+00 3.33E+02 3.32E+02 
2.641E-03 9.89E-01 6.07E-02 2.75E+02 0.00E+00 0.00E+00 2.76E+02 2.75E+02 
2.822E-03 9.47E-01 6.58E-02 2.27E+02 0.00E+00 0.00E+00 2.28E+02 2.27E+02 
2.822E-03 9.47E-01 6.58E-02 2.34E+02 0.00E+00 0.00E+00 2.35E+02 2.34E+02 
3.000E-03 9.06E-01 7.05E-02 1.96E+02 0.00E+00 0.00E+00 1.97E+02 1.96E+02 
3.607E-03 7.78E-01 8.54E-02 1.15E+02 0.00E+00 0.00E+00 1.15E+02 1.15E+02 
3.607E-03 7.78E-01 8.54E-02 1.17E+02 0.00E+00 0.00E+00 1.18E+02 1.17E+02 
4.000E-03 7.06E-01 9.39E-02 8.60E+01 0.00E+00 0.00E+00 8.68E+01 8.61E+01 
5.000E-03 5.57E-01 1.12E-01 4.43E+01 0.00E+00 0.00E+00 4.49E+01 4.44E+01 
6.000E-03 4.49E-01 1.25E-01 2.55E+01 0.00E+00 0.00E+00 2.61E+01 2.57E+01 
8.000E-03 3.12E-01 1.43E-01 1.06E+01 0.00E+00 0.00E+00 1.11E+01 1.08E+01 
1.000E-02 2.32E-01 1.54E-01 5.32E+00 0.00E+00 0.00E+00 5.71E+00 5.47E+00 
1.500E-02 1.35E-01 1.69E-01 1.49E+00 0.00E+00 0.00E+00 1.79E+00 1.66E+00 
2.000E-02 8.95E-02 1.77E-01 5.96E-01 0.00E+00 0.00E+00 8.62E-01 7.72E-01 
3.000E-02 4.74E-02 1.82E-01 1.61E-01 0.00E+00 0.00E+00 3.91E-01 3.43E-01 
4.000E-02 2.90E-02 1.82E-01 6.32E-02 0.00E+00 0.00E+00 2.74E-01 2.45E-01 
5.000E-02 1.96E-02 1.80E-01 3.05E-02 0.00E+00 0.00E+00 2.30E-01 2.10E-01 
6.000E-02 1.41E-02 1.76E-01 1.68E-02 0.00E+00 0.00E+00 2.07E-01 1.93E-01 
8.000E-02 8.26E-03 1.69E-01 6.52E-03 0.00E+00 0.00E+00 1.84E-01 1.76E-01 
1.000E-01 5.42E-03 1.62E-01 3.13E-03 0.00E+00 0.00E+00 1.71E-01 1.65E-01 
1.500E-01 2.47E-03 1.47E-01 8.35E-04 0.00E+00 0.00E+00 1.50E-01 1.48E-01 
2.000E-01 1.41E-03 1.35E-01 3.31E-04 0.00E+00 0.00E+00 1.37E-01 1.35E-01 
3.000E-01 6.30E-04 1.17E-01 9.40E-05 0.00E+00 0.00E+00 1.18E-01 1.18E-01 
4.000E-01 3.55E-04 1.05E-01 4.04E-05 0.00E+00 0.00E+00 1.06E-01 1.05E-01 
5.000E-01 2.28E-04 9.63E-02 2.18E-05 0.00E+00 0.00E+00 9.65E-02 9.63E-02 
6.000E-01 1.58E-04 8.90E-02 1.36E-05 0.00E+00 0.00E+00 8.92E-02 8.91E-02 
8.000E-01 8.91E-05 7.83E-02 6.86E-06 0.00E+00 0.00E+00 7.84E-02 7.83E-02 
1.000E+00 5.71E-05 7.04E-02 4.27E-06 0.00E+00 0.00E+00 7.04E-02 7.04E-02 
1.022E+00 5.46E-05 6.96E-02 3.99E-06 0.00E+00 0.00E+00 6.97E-02 6.96E-02 
1.250E+00 3.65E-05 6.29E-02 2.70E-06 1.78E-05 0.00E+00 6.30E-02 6.30E-02 
1.500E+00 2.54E-05 5.72E-02 1.96E-06 9.86E-05 0.00E+00 5.73E-02 5.73E-02 
2.000E+00 1.43E-05 4.88E-02 1.23E-06 3.92E-04 0.00E+00 4.92E-02 4.92E-02 
2.044E+00 1.37E-05 4.82E-02 1.19E-06 4.23E-04 0.00E+00 4.86E-02 4.86E-02 
3.000E+00 6.34E-06 3.84E-02 6.86E-07 1.12E-03 1.34E-05 3.95E-02 3.95E-02 
4.000E+00 3.57E-06 3.20E-02 4.70E-07 1.82E-03 5.49E-05 3.39E-02 3.39E-02 
5.000E+00 2.28E-06 2.77E-02 3.56E-07 2.44E-03 1.09E-04 3.02E-02 3.02E-02 
6.000E+00 1.59E-06 2.44E-02 2.86E-07 3.00E-03 1.68E-04 2.76E-02 2.76E-02 
