Density

1.04

Photon    Coherent Incoher. Photoel. Nuclear  Electron Tot. w/  Tot. wo/ 
Energy    Scatter. Scatter. Absorb.  Pr. Prd. Pr. Prd. Coherent Coherent 

1.000E-03 1.35E+00 1.34E-02 3.82E+03 0.00E+00 0.00E+00 3.82E+03 3.82E+03 
1.035E-03 1.34E+00 1.42E-02 3.48E+03 0.00E+00 0.00E+00 3.48E+03 3.48E+03 
1.072E-03 1.33E+00 1.52E-02 3.17E+03 0.00E+00 0.00E+00 3.18E+03 3.17E+03 
1.072E-03 1.33E+00 1.52E-02 3.19E+03 0.00E+00 0.00E+00 3.19E+03 3.19E+03 
1.500E-03 1.24E+00 2.70E-02 1.29E+03 0.00E+00 0.00E+00 1.29E+03 1.29E+03 
2.000E-03 1.12E+00 4.22E-02 5.77E+02 0.00E+00 0.00E+00 5.78E+02 5.77E+02 
2.145E-03 1.09E+00 4.66E-02 4.73E+02 0.00E+00 0.00E+00 4.74E+02 4.73E+02 
2.145E-03 1.09E+00 4.66E-02 4.77E+02 0.00E+00 0.00E+00 4.78E+02 4.77E+02 
2.303E-03 1.05E+00 5.13E-02 3.90E+02 0.00E+00 0.00E+00 3.91E+02 3.90E+02 
2.472E-03 1.01E+00 5.63E-02 3.18E+02 0.00E+00 0.00E+00 3.19E+02 3.18E+02 
2.472E-03 1.01E+00 5.63E-02 3.22E+02 0.00E+00 0.00E+00 3.23E+02 3.22E+02 
2.641E-03 9.65E-01 6.11E-02 2.66E+02 0.00E+00 0.00E+00 2.67E+02 2.66E+02 
2.822E-03 9.23E-01 6.62E-02 2.19E+02 0.00E+00 0.00E+00 2.20E+02 2.20E+02 
2.822E-03 9.23E-01 6.62E-02 2.24E+02 0.00E+00 0.00E+00 2.25E+02 2.24E+02 
3.000E-03 8.83E-01 7.09E-02 1.88E+02 0.00E+00 0.00E+00 1.89E+02 1.88E+02 
3.607E-03 7.58E-01 8.58E-02 1.09E+02 0.00E+00 0.00E+00 1.10E+02 1.10E+02 
3.607E-03 7.58E-01 8.58E-02 1.13E+02 0.00E+00 0.00E+00 1.13E+02 1.13E+02 
4.000E-03 6.87E-01 9.42E-02 8.30E+01 0.00E+00 0.00E+00 8.38E+01 8.31E+01 
5.000E-03 5.42E-01 1.12E-01 4.27E+01 0.00E+00 0.00E+00 4.34E+01 4.28E+01 
6.000E-03 4.37E-01 1.25E-01 2.47E+01 0.00E+00 0.00E+00 2.52E+01 2.48E+01 
8.000E-03 3.04E-01 1.43E-01 1.02E+01 0.00E+00 0.00E+00 1.07E+01 1.04E+01 
1.000E-02 2.27E-01 1.54E-01 5.14E+00 0.00E+00 0.00E+00 5.52E+00 5.29E+00 
1.500E-02 1.32E-01 1.69E-01 1.44E+00 0.00E+00 0.00E+00 1.74E+00 1.61E+00 
2.000E-02 8.76E-02 1.76E-01 5.76E-01 0.00E+00 0.00E+00 8.40E-01 7.52E-01 
3.000E-02 4.64E-02 1.82E-01 1.56E-01 0.00E+00 0.00E+00 3.84E-01 3.38E-01 
4.000E-02 2.84E-02 1.82E-01 6.13E-02 0.00E+00 0.00E+00 2.71E-01 2.43E-01 
5.000E-02 1.91E-02 1.79E-01 2.95E-02 0.00E+00 0.00E+00 2.28E-01 2.09E-01 
6.000E-02 1.38E-02 1.76E-01 1.63E-02 0.00E+00 0.00E+00 2.06E-01 1.92E-01 
8.000E-02 8.08E-03 1.69E-01 6.32E-03 0.00E+00 0.00E+00 1.83E-01 1.75E-01 
1.000E-01 5.29E-03 1.62E-01 3.04E-03 0.00E+00 0.00E+00 1.70E-01 1.65E-01 
1.500E-01 2.42E-03 1.46E-01 8.10E-04 0.00E+00 0.00E+00 1.50E-01 1.47E-01 
2.000E-01 1.37E-03 1.34E-01 3.22E-04 0.00E+00 0.00E+00 1.36E-01 1.35E-01 
3.000E-01 6.15E-04 1.17E-01 9.14E-05 0.00E+00 0.00E+00 1.18E-01 1.17E-01 
4.000E-01 3.47E-04 1.05E-01 3.92E-05 0.00E+00 0.00E+00 1.05E-01 1.05E-01 
5.000E-01 2.22E-04 9.60E-02 2.12E-05 0.00E+00 0.00E+00 9.62E-02 9.60E-02 
6.000E-01 1.55E-04 8.88E-02 1.32E-05 0.00E+00 0.00E+00 8.90E-02 8.88E-02 
8.000E-01 8.70E-05 7.80E-02 6.67E-06 0.00E+00 0.00E+00 7.81E-02 7.81E-02 
1.000E+00 5.57E-05 7.02E-02 4.15E-06 0.00E+00 0.00E+00 7.03E-02 7.02E-02 
1.022E+00 5.34E-05 6.95E-02 3.88E-06 0.00E+00 0.00E+00 6.95E-02 6.95E-02 
1.250E+00 3.57E-05 6.28E-02 2.63E-06 1.76E-05 0.00E+00 6.28E-02 6.28E-02 
1.500E+00 2.48E-05 5.70E-02 1.91E-06 9.71E-05 0.00E+00 5.72E-02 5.71E-02 
2.000E+00 1.39E-05 4.87E-02 1.20E-06 3.86E-04 0.00E+00 4.91E-02 4.91E-02 
2.044E+00 1.33E-05 4.81E-02 1.16E-06 4.16E-04 0.00E+00 4.85E-02 4.85E-02 
3.000E+00 6.19E-06 3.83E-02 6.67E-07 1.10E-03 1.34E-05 3.94E-02 3.94E-02 
4.000E+00 3.48E-06 3.19E-02 4.57E-07 1.79E-03 5.47E-05 3.38E-02 3.38E-02 
5.000E+00 2.23E-06 2.76E-02 3.46E-07 2.40E-03 1.09E-04 3.01E-02 3.01E-02 
6.000E+00 1.55E-06 2.44E-02 2.78E-07 2.95E-03 1.67E-04 2.75E-02 2.75E-02 
