Density

1.06

Photon    Coherent Incoher. Photoel. Nuclear  Electron Tot. w/  Tot. wo/ 
Energy    Scatter. Scatter. Absorb.  Pr. Prd. Pr. Prd. Coherent Coherent 

1.000E-03 1.33E+00 1.34E-02 3.80E+03 0.00E+00 0.00E+00 3.81E+03 3.80E+03 
1.500E-03 1.23E+00 2.70E-02 1.28E+03 0.00E+00 0.00E+00 1.28E+03 1.28E+03 
2.000E-03 1.11E+00 4.21E-02 5.71E+02 0.00E+00 0.00E+00 5.72E+02 5.71E+02 
2.145E-03 1.07E+00 4.65E-02 4.68E+02 0.00E+00 0.00E+00 4.69E+02 4.68E+02 
2.145E-03 1.07E+00 4.65E-02 4.68E+02 0.00E+00 0.00E+00 4.69E+02 4.68E+02 
2.145E-03 1.07E+00 4.65E-02 4.68E+02 0.00E+00 0.00E+00 4.69E+02 4.68E+02 
2.303E-03 1.03E+00 5.12E-02 3.83E+02 0.00E+00 0.00E+00 3.85E+02 3.84E+02 
2.472E-03 9.91E-01 5.62E-02 3.17E+02 0.00E+00 0.00E+00 3.18E+02 3.17E+02 
2.472E-03 9.91E-01 5.62E-02 3.17E+02 0.00E+00 0.00E+00 3.18E+02 3.17E+02 
2.472E-03 9.91E-01 5.62E-02 3.17E+02 0.00E+00 0.00E+00 3.18E+02 3.17E+02 
3.000E-03 8.69E-01 7.09E-02 1.81E+02 0.00E+00 0.00E+00 1.82E+02 1.81E+02 
4.000E-03 6.75E-01 9.42E-02 7.72E+01 0.00E+00 0.00E+00 7.80E+01 7.73E+01 
5.000E-03 5.32E-01 1.12E-01 3.95E+01 0.00E+00 0.00E+00 4.01E+01 3.96E+01 
6.000E-03 4.28E-01 1.25E-01 2.27E+01 0.00E+00 0.00E+00 2.32E+01 2.28E+01 
8.000E-03 2.97E-01 1.43E-01 9.35E+00 0.00E+00 0.00E+00 9.79E+00 9.49E+00 
1.000E-02 2.22E-01 1.54E-01 4.66E+00 0.00E+00 0.00E+00 5.04E+00 4.82E+00 
1.500E-02 1.29E-01 1.69E-01 1.29E+00 0.00E+00 0.00E+00 1.59E+00 1.46E+00 
2.000E-02 8.55E-02 1.76E-01 5.14E-01 0.00E+00 0.00E+00 7.76E-01 6.90E-01 
3.000E-02 4.52E-02 1.82E-01 1.38E-01 0.00E+00 0.00E+00 3.65E-01 3.19E-01 
4.000E-02 2.77E-02 1.81E-01 5.38E-02 0.00E+00 0.00E+00 2.63E-01 2.35E-01 
5.000E-02 1.87E-02 1.79E-01 2.58E-02 0.00E+00 0.00E+00 2.23E-01 2.05E-01 
6.000E-02 1.34E-02 1.76E-01 1.42E-02 0.00E+00 0.00E+00 2.03E-01 1.90E-01 
8.000E-02 7.86E-03 1.68E-01 5.48E-03 0.00E+00 0.00E+00 1.82E-01 1.74E-01 
1.000E-01 5.15E-03 1.61E-01 2.62E-03 0.00E+00 0.00E+00 1.69E-01 1.64E-01 
1.500E-01 2.35E-03 1.46E-01 6.95E-04 0.00E+00 0.00E+00 1.49E-01 1.47E-01 
2.000E-01 1.33E-03 1.34E-01 2.75E-04 0.00E+00 0.00E+00 1.36E-01 1.35E-01 
3.000E-01 5.97E-04 1.17E-01 7.77E-05 0.00E+00 0.00E+00 1.18E-01 1.17E-01 
4.000E-01 3.37E-04 1.05E-01 3.33E-05 0.00E+00 0.00E+00 1.05E-01 1.05E-01 
5.000E-01 2.16E-04 9.58E-02 1.79E-05 0.00E+00 0.00E+00 9.61E-02 9.58E-02 
6.000E-01 1.50E-04 8.87E-02 1.12E-05 0.00E+00 0.00E+00 8.88E-02 8.87E-02 
8.000E-01 8.45E-05 7.79E-02 5.64E-06 0.00E+00 0.00E+00 7.80E-02 7.79E-02 
1.000E+00 5.41E-05 7.01E-02 3.51E-06 0.00E+00 0.00E+00 7.01E-02 7.01E-02 
1.022E+00 5.18E-05 6.93E-02 3.27E-06 0.00E+00 0.00E+00 6.94E-02 6.93E-02 
1.250E+00 3.46E-05 6.27E-02 2.22E-06 1.73E-05 0.00E+00 6.27E-02 6.27E-02 
1.500E+00 2.40E-05 5.69E-02 1.61E-06 9.58E-05 0.00E+00 5.71E-02 5.70E-02 
2.000E+00 1.35E-05 4.86E-02 1.01E-06 3.81E-04 0.00E+00 4.90E-02 4.90E-02 
2.044E+00 1.29E-05 4.80E-02 9.79E-07 4.11E-04 0.00E+00 4.84E-02 4.84E-02 
3.000E+00 6.01E-06 3.82E-02 5.65E-07 1.09E-03 1.34E-05 3.93E-02 3.93E-02 
4.000E+00 3.38E-06 3.19E-02 3.88E-07 1.77E-03 5.46E-05 3.37E-02 3.37E-02 
5.000E+00 2.16E-06 2.75E-02 2.94E-07 2.37E-03 1.09E-04 3.00E-02 3.00E-02 
6.000E+00 1.50E-06 2.43E-02 2.36E-07 2.91E-03 1.67E-04 2.74E-02 2.74E-02 
7.000E+00 1.10E-06 2.19E-02 1.97E-07 3.40E-03 2.25E-04 2.55E-02 2.55E-02 
8.000E+00 8.46E-07 1.99E-02 1.69E-07 3.83E-03 2.82E-04 2.40E-02 2.40E-02 
9.000E+00 6.68E-07 1.83E-02 1.48E-07 4.23E-03 3.36E-04 2.29E-02 2.29E-02 
1.000E+01 5.41E-07 1.70E-02 1.32E-07 4.59E-03 3.88E-04 2.19E-02 2.19E-02 
1.100E+01 4.47E-07 1.58E-02 1.19E-07 4.91E-03 4.37E-04 2.12E-02 2.12E-02 
1.200E+01 3.76E-07 1.48E-02 1.08E-07 5.21E-03 4.83E-04 2.05E-02 2.05E-02 
1.300E+01 3.20E-07 1.40E-02 9.89E-08 5.49E-03 5.27E-04 2.00E-02 2.00E-02 
1.400E+01 2.76E-07 1.32E-02 9.12E-08 5.75E-03 5.69E-04 1.95E-02 1.95E-02 
1.500E+01 2.41E-07 1.26E-02 8.47E-08 5.99E-03 6.08E-04 1.92E-02 1.92E-02 
1.600E+01 2.11E-07 1.20E-02 7.90E-08 6.22E-03 6.47E-04 1.88E-02 1.88E-02 
1.800E+01 1.67E-07 1.09E-02 6.97E-08 6.64E-03 7.17E-04 1.83E-02 1.83E-02 
2.000E+01 1.35E-07 1.01E-02 6.23E-08 7.01E-03 7.81E-04 1.79E-02 1.79E-02 
