Density

1.06

Photon    Coherent Incoher. Photoel. Nuclear  Electron Tot. w/  Tot. wo/ 
Energy    Scatter. Scatter. Absorb.  Pr. Prd. Pr. Prd. Coherent Coherent 

1.000E-03 1.346E+00 1.333E-02 3.804E+03 0.000E+00 0.000E+00 3.806E+03 3.804E+03 
1.035E-03 1.338E+00 1.418E-02 3.467E+03 0.000E+00 0.000E+00 3.469E+03 3.467E+03 
1.072E-03 1.331E+00 1.509E-02 3.160E+03 0.000E+00 0.000E+00 3.161E+03 3.160E+03 
1.072E-03 1.331E+00 1.509E-02 3.166E+03 0.000E+00 0.000E+00 3.167E+03 3.166E+03 
1.500E-03 1.240E+00 2.691E-02 1.280E+03 0.000E+00 0.000E+00 1.282E+03 1.280E+03 
2.000E-03 1.118E+00 4.198E-02 5.726E+02 0.000E+00 0.000E+00 5.738E+02 5.727E+02 
2.145E-03 1.082E+00 4.637E-02 4.689E+02 0.000E+00 0.000E+00 4.700E+02 4.689E+02 
2.145E-03 1.082E+00 4.637E-02 4.711E+02 0.000E+00 0.000E+00 4.723E+02 4.712E+02 
2.303E-03 1.043E+00 5.107E-02 3.848E+02 0.000E+00 0.000E+00 3.859E+02 3.848E+02 
2.472E-03 1.001E+00 5.603E-02 3.139E+02 0.000E+00 0.000E+00 3.150E+02 3.140E+02 
2.472E-03 1.001E+00 5.603E-02 3.176E+02 0.000E+00 0.000E+00 3.187E+02 3.177E+02 
2.641E-03 9.606E-01 6.088E-02 2.624E+02 0.000E+00 0.000E+00 2.634E+02 2.625E+02 
2.822E-03 9.185E-01 6.590E-02 2.166E+02 0.000E+00 0.000E+00 2.176E+02 2.166E+02 
2.822E-03 9.185E-01 6.590E-02 2.209E+02 0.000E+00 0.000E+00 2.219E+02 2.210E+02 
3.000E-03 8.786E-01 7.065E-02 1.853E+02 0.000E+00 0.000E+00 1.862E+02 1.854E+02 
3.607E-03 7.536E-01 8.546E-02 1.080E+02 0.000E+00 0.000E+00 1.088E+02 1.080E+02 
3.607E-03 7.536E-01 8.546E-02 1.101E+02 0.000E+00 0.000E+00 1.109E+02 1.102E+02 
4.000E-03 6.833E-01 9.387E-02 8.109E+01 0.000E+00 0.000E+00 8.187E+01 8.119E+01 
5.000E-03 5.386E-01 1.115E-01 4.167E+01 0.000E+00 0.000E+00 4.232E+01 4.179E+01 
6.000E-03 4.345E-01 1.247E-01 2.402E+01 0.000E+00 0.000E+00 2.458E+01 2.415E+01 
7.112E-03 3.514E-01 1.356E-01 1.430E+01 0.000E+00 0.000E+00 1.479E+01 1.444E+01 
7.112E-03 3.514E-01 1.356E-01 1.466E+01 0.000E+00 0.000E+00 1.514E+01 1.479E+01 
8.000E-03 3.021E-01 1.423E-01 1.023E+01 0.000E+00 0.000E+00 1.068E+01 1.037E+01 
1.000E-02 2.258E-01 1.532E-01 5.141E+00 0.000E+00 0.000E+00 5.520E+00 5.294E+00 
1.500E-02 1.313E-01 1.682E-01 1.445E+00 0.000E+00 0.000E+00 1.744E+00 1.613E+00 
2.000E-02 8.720E-02 1.758E-01 5.800E-01 0.000E+00 0.000E+00 8.429E-01 7.557E-01 
3.000E-02 4.615E-02 1.813E-01 1.577E-01 0.000E+00 0.000E+00 3.852E-01 3.390E-01 
4.000E-02 2.827E-02 1.811E-01 6.208E-02 0.000E+00 0.000E+00 2.715E-01 2.432E-01 
5.000E-02 1.905E-02 1.787E-01 3.001E-02 0.000E+00 0.000E+00 2.278E-01 2.087E-01 
6.000E-02 1.370E-02 1.754E-01 1.654E-02 0.000E+00 0.000E+00 2.057E-01 1.920E-01 
8.000E-02 8.038E-03 1.682E-01 6.452E-03 0.000E+00 0.000E+00 1.827E-01 1.746E-01 
1.000E-01 5.267E-03 1.611E-01 3.109E-03 0.000E+00 0.000E+00 1.695E-01 1.642E-01 
1.500E-01 2.405E-03 1.460E-01 8.317E-04 0.000E+00 0.000E+00 1.492E-01 1.468E-01 
2.000E-01 1.367E-03 1.341E-01 3.309E-04 0.000E+00 0.000E+00 1.358E-01 1.344E-01 
3.000E-01 6.124E-04 1.169E-01 9.426E-05 0.000E+00 0.000E+00 1.176E-01 1.170E-01 
4.000E-01 3.455E-04 1.048E-01 4.054E-05 0.000E+00 0.000E+00 1.052E-01 1.048E-01 
5.000E-01 2.214E-04 9.574E-02 2.192E-05 0.000E+00 0.000E+00 9.599E-02 9.576E-02 
6.000E-01 1.539E-04 8.857E-02 1.367E-05 0.000E+00 0.000E+00 8.874E-02 8.859E-02 
8.000E-01 8.664E-05 7.784E-02 6.910E-06 0.000E+00 0.000E+00 7.793E-02 7.785E-02 
1.000E+00 5.546E-05 7.001E-02 4.296E-06 0.000E+00 0.000E+00 7.007E-02 7.001E-02 
1.022E+00 5.311E-05 6.927E-02 4.016E-06 0.000E+00 0.000E+00 6.933E-02 6.927E-02 
1.250E+00 3.552E-05 6.260E-02 2.725E-06 1.752E-05 0.000E+00 6.265E-02 6.262E-02 
1.500E+00 2.466E-05 5.689E-02 1.975E-06 9.681E-05 0.000E+00 5.701E-02 5.699E-02 
2.000E+00 1.387E-05 4.856E-02 1.238E-06 3.852E-04 0.000E+00 4.896E-02 4.895E-02 
2.044E+00 1.328E-05 4.795E-02 1.198E-06 4.151E-04 0.000E+00 4.838E-02 4.836E-02 
3.000E+00 6.166E-06 3.820E-02 6.887E-07 1.101E-03 1.336E-05 3.932E-02 3.931E-02 
4.000E+00 3.469E-06 3.186E-02 4.714E-07 1.785E-03 5.456E-05 3.371E-02 3.370E-02 
5.000E+00 2.220E-06 2.752E-02 3.567E-07 2.395E-03 1.087E-04 3.002E-02 3.002E-02 
6.000E+00 1.541E-06 2.432E-02 2.863E-07 2.943E-03 1.670E-04 2.743E-02 2.743E-02 
