Density

1.026

Photon    Coherent Incoher. Photoel. Nuclear  Electron Tot. w/  Tot. wo/ 
Energy    Scatter. Scatter. Absorb.  Pr. Prd. Pr. Prd. Coherent Coherent 

1.000E-03 1.366E+00 1.324E-02 3.961E+03 0.000E+00 0.000E+00 3.962E+03 3.961E+03 
1.035E-03 1.358E+00 1.409E-02 3.611E+03 0.000E+00 0.000E+00 3.612E+03 3.611E+03 
1.072E-03 1.351E+00 1.499E-02 3.292E+03 0.000E+00 0.000E+00 3.293E+03 3.292E+03 
1.072E-03 1.351E+00 1.499E-02 3.310E+03 0.000E+00 0.000E+00 3.311E+03 3.310E+03 
1.500E-03 1.262E+00 2.678E-02 1.342E+03 0.000E+00 0.000E+00 1.344E+03 1.343E+03 
2.000E-03 1.141E+00 4.185E-02 6.016E+02 0.000E+00 0.000E+00 6.028E+02 6.016E+02 
2.472E-03 1.024E+00 5.593E-02 3.284E+02 0.000E+00 0.000E+00 3.295E+02 3.285E+02 
2.472E-03 1.024E+00 5.593E-02 3.303E+02 0.000E+00 0.000E+00 3.314E+02 3.303E+02 
2.641E-03 9.829E-01 6.080E-02 2.728E+02 0.000E+00 0.000E+00 2.739E+02 2.729E+02 
2.822E-03 9.404E-01 6.585E-02 2.251E+02 0.000E+00 0.000E+00 2.261E+02 2.252E+02 
2.822E-03 9.404E-01 6.585E-02 2.310E+02 0.000E+00 0.000E+00 2.320E+02 2.310E+02 
3.000E-03 9.000E-01 7.062E-02 1.937E+02 0.000E+00 0.000E+00 1.947E+02 1.938E+02 
4.000E-03 7.012E-01 9.402E-02 8.311E+01 0.000E+00 0.000E+00 8.390E+01 8.320E+01 
5.000E-03 5.528E-01 1.119E-01 4.264E+01 0.000E+00 0.000E+00 4.330E+01 4.275E+01 
6.000E-03 4.454E-01 1.253E-01 2.454E+01 0.000E+00 0.000E+00 2.511E+01 2.466E+01 
8.000E-03 3.087E-01 1.432E-01 1.015E+01 0.000E+00 0.000E+00 1.060E+01 1.030E+01 
1.000E-02 2.299E-01 1.542E-01 5.076E+00 0.000E+00 0.000E+00 5.460E+00 5.230E+00 
1.500E-02 1.332E-01 1.691E-01 1.413E+00 0.000E+00 0.000E+00 1.716E+00 1.582E+00 
2.000E-02 8.848E-02 1.766E-01 5.635E-01 0.000E+00 0.000E+00 8.286E-01 7.401E-01 
3.000E-02 4.687E-02 1.822E-01 1.518E-01 0.000E+00 0.000E+00 3.808E-01 3.340E-01 
4.000E-02 2.871E-02 1.821E-01 5.934E-02 0.000E+00 0.000E+00 2.701E-01 2.414E-01 
5.000E-02 1.934E-02 1.796E-01 2.854E-02 0.000E+00 0.000E+00 2.275E-01 2.082E-01 
6.000E-02 1.391E-02 1.764E-01 1.567E-02 0.000E+00 0.000E+00 2.059E-01 1.920E-01 
8.000E-02 8.160E-03 1.691E-01 6.074E-03 0.000E+00 0.000E+00 1.833E-01 1.752E-01 
1.000E-01 5.347E-03 1.620E-01 2.914E-03 0.000E+00 0.000E+00 1.703E-01 1.649E-01 
1.500E-01 2.441E-03 1.468E-01 7.736E-04 0.000E+00 0.000E+00 1.500E-01 1.476E-01 
2.000E-01 1.387E-03 1.348E-01 3.063E-04 0.000E+00 0.000E+00 1.365E-01 1.351E-01 
3.000E-01 6.215E-04 1.175E-01 8.677E-05 0.000E+00 0.000E+00 1.182E-01 1.176E-01 
4.000E-01 3.506E-04 1.054E-01 3.720E-05 0.000E+00 0.000E+00 1.057E-01 1.054E-01 
5.000E-01 2.247E-04 9.626E-02 2.007E-05 0.000E+00 0.000E+00 9.651E-02 9.628E-02 
6.000E-01 1.561E-04 8.906E-02 1.251E-05 0.000E+00 0.000E+00 8.923E-02 8.907E-02 
8.000E-01 8.791E-05 7.827E-02 6.315E-06 0.000E+00 0.000E+00 7.836E-02 7.827E-02 
1.000E+00 5.628E-05 7.039E-02 3.926E-06 0.000E+00 0.000E+00 7.045E-02 7.040E-02 
1.022E+00 5.389E-05 6.965E-02 3.663E-06 0.000E+00 0.000E+00 6.971E-02 6.965E-02 
1.250E+00 3.604E-05 6.294E-02 2.486E-06 1.772E-05 0.000E+00 6.300E-02 6.296E-02 
1.500E+00 2.502E-05 5.720E-02 1.803E-06 9.794E-05 0.000E+00 5.733E-02 5.730E-02 
2.000E+00 1.408E-05 4.883E-02 1.133E-06 3.897E-04 0.000E+00 4.923E-02 4.922E-02 
2.044E+00 1.347E-05 4.821E-02 1.096E-06 4.200E-04 0.000E+00 4.864E-02 4.863E-02 
3.000E+00 6.256E-06 3.840E-02 6.322E-07 1.114E-03 1.344E-05 3.954E-02 3.953E-02 
4.000E+00 3.520E-06 3.204E-02 4.335E-07 1.807E-03 5.486E-05 3.390E-02 3.390E-02 
5.000E+00 2.252E-06 2.767E-02 3.285E-07 2.424E-03 1.093E-04 3.020E-02 3.020E-02 
6.000E+00 1.564E-06 2.445E-02 2.640E-07 2.978E-03 1.679E-04 2.760E-02 2.760E-02 
