Density

1.01

Photon    Coherent Incoher. Photoel. Nuclear  Electron Tot. w/  Tot. wo/ 
Energy    Scatter. Scatter. Absorb.  Pr. Prd. Pr. Prd. Coherent Coherent 

1.000E-03 1.382E+00 1.318E-02 4.053E+03 0.000E+00 0.000E+00 4.054E+03 4.053E+03 
1.035E-03 1.374E+00 1.402E-02 3.696E+03 0.000E+00 0.000E+00 3.697E+03 3.696E+03 
1.072E-03 1.366E+00 1.492E-02 3.369E+03 0.000E+00 0.000E+00 3.371E+03 3.369E+03 
1.072E-03 1.366E+00 1.492E-02 3.399E+03 0.000E+00 0.000E+00 3.400E+03 3.399E+03 
1.500E-03 1.278E+00 2.667E-02 1.382E+03 0.000E+00 0.000E+00 1.383E+03 1.382E+03 
2.000E-03 1.157E+00 4.171E-02 6.199E+02 0.000E+00 0.000E+00 6.211E+02 6.200E+02 
2.822E-03 9.563E-01 6.571E-02 2.309E+02 0.000E+00 0.000E+00 2.319E+02 2.309E+02 
2.822E-03 9.563E-01 6.571E-02 2.367E+02 0.000E+00 0.000E+00 2.377E+02 2.368E+02 
3.000E-03 9.156E-01 7.050E-02 1.985E+02 0.000E+00 0.000E+00 1.995E+02 1.986E+02 
4.000E-03 7.143E-01 9.396E-02 8.516E+01 0.000E+00 0.000E+00 8.597E+01 8.525E+01 
5.000E-03 5.633E-01 1.119E-01 4.369E+01 0.000E+00 0.000E+00 4.436E+01 4.380E+01 
6.000E-03 4.538E-01 1.255E-01 2.514E+01 0.000E+00 0.000E+00 2.572E+01 2.527E+01 
8.000E-03 3.140E-01 1.435E-01 1.040E+01 0.000E+00 0.000E+00 1.086E+01 1.055E+01 
1.000E-02 2.336E-01 1.546E-01 5.200E+00 0.000E+00 0.000E+00 5.588E+00 5.355E+00 
1.500E-02 1.351E-01 1.695E-01 1.447E+00 0.000E+00 0.000E+00 1.752E+00 1.617E+00 
2.000E-02 8.974E-02 1.770E-01 5.770E-01 0.000E+00 0.000E+00 8.437E-01 7.540E-01 
3.000E-02 4.757E-02 1.826E-01 1.554E-01 0.000E+00 0.000E+00 3.855E-01 3.379E-01 
4.000E-02 2.915E-02 1.825E-01 6.073E-02 0.000E+00 0.000E+00 2.723E-01 2.432E-01 
5.000E-02 1.964E-02 1.801E-01 2.920E-02 0.000E+00 0.000E+00 2.289E-01 2.093E-01 
6.000E-02 1.412E-02 1.768E-01 1.603E-02 0.000E+00 0.000E+00 2.069E-01 1.928E-01 
8.000E-02 8.288E-03 1.695E-01 6.212E-03 0.000E+00 0.000E+00 1.840E-01 1.757E-01 
1.000E-01 5.431E-03 1.624E-01 2.980E-03 0.000E+00 0.000E+00 1.708E-01 1.654E-01 
1.500E-01 2.480E-03 1.472E-01 7.907E-04 0.000E+00 0.000E+00 1.504E-01 1.480E-01 
2.000E-01 1.410E-03 1.352E-01 3.130E-04 0.000E+00 0.000E+00 1.369E-01 1.355E-01 
3.000E-01 6.316E-04 1.178E-01 8.866E-05 0.000E+00 0.000E+00 1.185E-01 1.179E-01 
4.000E-01 3.563E-04 1.056E-01 3.800E-05 0.000E+00 0.000E+00 1.060E-01 1.057E-01 
5.000E-01 2.283E-04 9.652E-02 2.050E-05 0.000E+00 0.000E+00 9.676E-02 9.654E-02 
6.000E-01 1.587E-04 8.929E-02 1.277E-05 0.000E+00 0.000E+00 8.946E-02 8.930E-02 
8.000E-01 8.933E-05 7.847E-02 6.450E-06 0.000E+00 0.000E+00 7.857E-02 7.848E-02 
1.000E+00 5.719E-05 7.058E-02 4.010E-06 0.000E+00 0.000E+00 7.064E-02 7.058E-02 
1.022E+00 5.476E-05 6.983E-02 3.741E-06 0.000E+00 0.000E+00 6.989E-02 6.983E-02 
1.250E+00 3.662E-05 6.311E-02 2.540E-06 1.790E-05 0.000E+00 6.316E-02 6.313E-02 
1.500E+00 2.542E-05 5.735E-02 1.842E-06 9.893E-05 0.000E+00 5.748E-02 5.745E-02 
2.000E+00 1.430E-05 4.896E-02 1.158E-06 3.936E-04 0.000E+00 4.937E-02 4.935E-02 
2.044E+00 1.369E-05 4.834E-02 1.120E-06 4.242E-04 0.000E+00 4.877E-02 4.876E-02 
3.000E+00 6.358E-06 3.851E-02 6.459E-07 1.125E-03 1.347E-05 3.965E-02 3.964E-02 
4.000E+00 3.577E-06 3.212E-02 4.429E-07 1.825E-03 5.501E-05 3.400E-02 3.400E-02 
5.000E+00 2.289E-06 2.774E-02 3.356E-07 2.448E-03 1.096E-04 3.030E-02 3.030E-02 
6.000E+00 1.589E-06 2.452E-02 2.697E-07 3.008E-03 1.683E-04 2.769E-02 2.769E-02 
