Density

1.04

Photon    Coherent Incoher. Photoel. Nuclear  Electron Tot. w/  Tot. wo/ 
Energy    Scatter. Scatter. Absorb.  Pr. Prd. Pr. Prd. Coherent Coherent 

1.000E-03 1.310E+00 1.384E-02 3.579E+03 0.000E+00 0.000E+00 3.581E+03 3.579E+03 
1.035E-03 1.302E+00 1.472E-02 3.261E+03 0.000E+00 0.000E+00 3.263E+03 3.261E+03 
1.072E-03 1.295E+00 1.565E-02 2.971E+03 0.000E+00 0.000E+00 2.973E+03 2.971E+03 
1.072E-03 1.295E+00 1.565E-02 2.983E+03 0.000E+00 0.000E+00 2.984E+03 2.983E+03 
1.500E-03 1.203E+00 2.783E-02 1.204E+03 0.000E+00 0.000E+00 1.205E+03 1.204E+03 
2.000E-03 1.082E+00 4.326E-02 5.374E+02 0.000E+00 0.000E+00 5.385E+02 5.374E+02 
2.145E-03 1.045E+00 4.775E-02 4.398E+02 0.000E+00 0.000E+00 4.409E+02 4.399E+02 
2.145E-03 1.045E+00 4.775E-02 4.487E+02 0.000E+00 0.000E+00 4.498E+02 4.488E+02 
2.303E-03 1.007E+00 5.253E-02 3.666E+02 0.000E+00 0.000E+00 3.676E+02 3.666E+02 
2.472E-03 9.659E-01 5.757E-02 2.992E+02 0.000E+00 0.000E+00 3.002E+02 2.992E+02 
2.472E-03 9.659E-01 5.757E-02 3.029E+02 0.000E+00 0.000E+00 3.039E+02 3.029E+02 
2.641E-03 9.260E-01 6.249E-02 2.503E+02 0.000E+00 0.000E+00 2.513E+02 2.504E+02 
2.822E-03 8.847E-01 6.758E-02 2.067E+02 0.000E+00 0.000E+00 2.076E+02 2.067E+02 
2.822E-03 8.847E-01 6.758E-02 2.110E+02 0.000E+00 0.000E+00 2.120E+02 2.111E+02 
3.000E-03 8.457E-01 7.238E-02 1.770E+02 0.000E+00 0.000E+00 1.779E+02 1.771E+02 
3.607E-03 7.243E-01 8.730E-02 1.032E+02 0.000E+00 0.000E+00 1.040E+02 1.033E+02 
3.607E-03 7.243E-01 8.730E-02 1.064E+02 0.000E+00 0.000E+00 1.072E+02 1.065E+02 
4.000E-03 6.563E-01 9.572E-02 7.844E+01 0.000E+00 0.000E+00 7.919E+01 7.854E+01 
5.000E-03 5.173E-01 1.133E-01 4.038E+01 0.000E+00 0.000E+00 4.101E+01 4.049E+01 
6.000E-03 4.177E-01 1.263E-01 2.331E+01 0.000E+00 0.000E+00 2.386E+01 2.344E+01 
8.000E-03 2.913E-01 1.437E-01 9.690E+00 0.000E+00 0.000E+00 1.013E+01 9.834E+00 
1.000E-02 2.183E-01 1.545E-01 4.862E+00 0.000E+00 0.000E+00 5.235E+00 5.017E+00 
1.500E-02 1.273E-01 1.695E-01 1.363E+00 0.000E+00 0.000E+00 1.659E+00 1.532E+00 
2.000E-02 8.447E-02 1.770E-01 5.458E-01 0.000E+00 0.000E+00 8.073E-01 7.228E-01 
3.000E-02 4.464E-02 1.824E-01 1.480E-01 0.000E+00 0.000E+00 3.750E-01 3.303E-01 
4.000E-02 2.734E-02 1.821E-01 5.813E-02 0.000E+00 0.000E+00 2.675E-01 2.402E-01 
5.000E-02 1.842E-02 1.795E-01 2.805E-02 0.000E+00 0.000E+00 2.260E-01 2.076E-01 
6.000E-02 1.324E-02 1.762E-01 1.544E-02 0.000E+00 0.000E+00 2.049E-01 1.916E-01 
8.000E-02 7.765E-03 1.689E-01 6.009E-03 0.000E+00 0.000E+00 1.826E-01 1.749E-01 
1.000E-01 5.086E-03 1.618E-01 2.891E-03 0.000E+00 0.000E+00 1.697E-01 1.646E-01 
1.500E-01 2.321E-03 1.465E-01 7.712E-04 0.000E+00 0.000E+00 1.496E-01 1.473E-01 
2.000E-01 1.319E-03 1.346E-01 3.063E-04 0.000E+00 0.000E+00 1.362E-01 1.349E-01 
3.000E-01 5.909E-04 1.173E-01 8.704E-05 0.000E+00 0.000E+00 1.179E-01 1.174E-01 
4.000E-01 3.334E-04 1.052E-01 3.739E-05 0.000E+00 0.000E+00 1.055E-01 1.052E-01 
5.000E-01 2.137E-04 9.607E-02 2.019E-05 0.000E+00 0.000E+00 9.631E-02 9.609E-02 
6.000E-01 1.485E-04 8.888E-02 1.259E-05 0.000E+00 0.000E+00 8.904E-02 8.889E-02 
8.000E-01 8.359E-05 7.811E-02 6.361E-06 0.000E+00 0.000E+00 7.820E-02 7.811E-02 
1.000E+00 5.351E-05 7.025E-02 3.954E-06 0.000E+00 0.000E+00 7.030E-02 7.025E-02 
1.022E+00 5.124E-05 6.951E-02 3.694E-06 0.000E+00 0.000E+00 6.956E-02 6.951E-02 
1.250E+00 3.426E-05 6.281E-02 2.507E-06 1.710E-05 0.000E+00 6.287E-02 6.283E-02 
1.500E+00 2.379E-05 5.709E-02 1.818E-06 9.452E-05 0.000E+00 5.721E-02 5.718E-02 
2.000E+00 1.338E-05 4.873E-02 1.141E-06 3.761E-04 0.000E+00 4.912E-02 4.910E-02 
2.044E+00 1.281E-05 4.811E-02 1.103E-06 4.053E-04 0.000E+00 4.853E-02 4.852E-02 
3.000E+00 5.949E-06 3.833E-02 6.350E-07 1.075E-03 1.341E-05 3.942E-02 3.942E-02 
4.000E+00 3.347E-06 3.197E-02 4.350E-07 1.744E-03 5.475E-05 3.377E-02 3.377E-02 
5.000E+00 2.141E-06 2.761E-02 3.293E-07 2.339E-03 1.091E-04 3.006E-02 3.006E-02 
6.000E+00 1.487E-06 2.440E-02 2.645E-07 2.875E-03 1.676E-04 2.745E-02 2.745E-02 
