Density

1.04

Photon    Coherent Incoher. Photoel. Nuclear  Electron Tot. w/  Tot. wo/ 
Energy    Scatter. Scatter. Absorb.  Pr. Prd. Pr. Prd. Coherent Coherent 

1.000E-03 1.351E+00 1.345E-02 3.822E+03 0.000E+00 0.000E+00 3.823E+03 3.822E+03 
1.035E-03 1.344E+00 1.431E-02 3.484E+03 0.000E+00 0.000E+00 3.485E+03 3.484E+03 
1.072E-03 1.336E+00 1.522E-02 3.175E+03 0.000E+00 0.000E+00 3.177E+03 3.175E+03 
1.072E-03 1.336E+00 1.522E-02 3.187E+03 0.000E+00 0.000E+00 3.188E+03 3.187E+03 
1.500E-03 1.246E+00 2.714E-02 1.290E+03 0.000E+00 0.000E+00 1.291E+03 1.290E+03 
2.000E-03 1.124E+00 4.233E-02 5.774E+02 0.000E+00 0.000E+00 5.786E+02 5.774E+02 
2.145E-03 1.087E+00 4.675E-02 4.729E+02 0.000E+00 0.000E+00 4.740E+02 4.729E+02 
2.145E-03 1.087E+00 4.675E-02 4.795E+02 0.000E+00 0.000E+00 4.807E+02 4.796E+02 
2.303E-03 1.048E+00 5.149E-02 3.918E+02 0.000E+00 0.000E+00 3.929E+02 3.919E+02 
2.472E-03 1.007E+00 5.648E-02 3.198E+02 0.000E+00 0.000E+00 3.209E+02 3.199E+02 
2.472E-03 1.007E+00 5.648E-02 3.235E+02 0.000E+00 0.000E+00 3.246E+02 3.236E+02 
2.641E-03 9.663E-01 6.136E-02 2.674E+02 0.000E+00 0.000E+00 2.685E+02 2.675E+02 
2.822E-03 9.241E-01 6.641E-02 2.208E+02 0.000E+00 0.000E+00 2.218E+02 2.209E+02 
2.822E-03 9.241E-01 6.641E-02 2.252E+02 0.000E+00 0.000E+00 2.262E+02 2.253E+02 
3.000E-03 8.841E-01 7.119E-02 1.889E+02 0.000E+00 0.000E+00 1.899E+02 1.890E+02 
3.607E-03 7.588E-01 8.609E-02 1.102E+02 0.000E+00 0.000E+00 1.110E+02 1.103E+02 
3.607E-03 7.588E-01 8.609E-02 1.134E+02 0.000E+00 0.000E+00 1.142E+02 1.135E+02 
4.000E-03 6.882E-01 9.454E-02 8.359E+01 0.000E+00 0.000E+00 8.437E+01 8.368E+01 
5.000E-03 5.427E-01 1.123E-01 4.304E+01 0.000E+00 0.000E+00 4.369E+01 4.315E+01 
6.000E-03 4.379E-01 1.255E-01 2.485E+01 0.000E+00 0.000E+00 2.541E+01 2.497E+01 
8.000E-03 3.044E-01 1.433E-01 1.033E+01 0.000E+00 0.000E+00 1.078E+01 1.047E+01 
1.000E-02 2.274E-01 1.542E-01 5.182E+00 0.000E+00 0.000E+00 5.564E+00 5.336E+00 
1.500E-02 1.321E-01 1.691E-01 1.452E+00 0.000E+00 0.000E+00 1.753E+00 1.621E+00 
2.000E-02 8.773E-02 1.766E-01 5.816E-01 0.000E+00 0.000E+00 8.459E-01 7.582E-01 
3.000E-02 4.644E-02 1.821E-01 1.576E-01 0.000E+00 0.000E+00 3.862E-01 3.397E-01 
4.000E-02 2.846E-02 1.820E-01 6.188E-02 0.000E+00 0.000E+00 2.723E-01 2.438E-01 
5.000E-02 1.918E-02 1.795E-01 2.986E-02 0.000E+00 0.000E+00 2.286E-01 2.094E-01 
6.000E-02 1.379E-02 1.762E-01 1.643E-02 0.000E+00 0.000E+00 2.064E-01 1.926E-01 
8.000E-02 8.092E-03 1.689E-01 6.392E-03 0.000E+00 0.000E+00 1.834E-01 1.753E-01 
1.000E-01 5.302E-03 1.618E-01 3.075E-03 0.000E+00 0.000E+00 1.702E-01 1.649E-01 
1.500E-01 2.421E-03 1.466E-01 8.197E-04 0.000E+00 0.000E+00 1.499E-01 1.475E-01 
2.000E-01 1.376E-03 1.347E-01 3.254E-04 0.000E+00 0.000E+00 1.364E-01 1.350E-01 
3.000E-01 6.167E-04 1.174E-01 9.245E-05 0.000E+00 0.000E+00 1.181E-01 1.175E-01 
4.000E-01 3.479E-04 1.053E-01 3.970E-05 0.000E+00 0.000E+00 1.056E-01 1.053E-01 
5.000E-01 2.230E-04 9.617E-02 2.144E-05 0.000E+00 0.000E+00 9.641E-02 9.619E-02 
6.000E-01 1.550E-04 8.897E-02 1.337E-05 0.000E+00 0.000E+00 8.914E-02 8.898E-02 
8.000E-01 8.724E-05 7.819E-02 6.753E-06 0.000E+00 0.000E+00 7.828E-02 7.819E-02 
1.000E+00 5.585E-05 7.032E-02 4.198E-06 0.000E+00 0.000E+00 7.038E-02 7.032E-02 
1.022E+00 5.348E-05 6.958E-02 3.922E-06 0.000E+00 0.000E+00 6.963E-02 6.958E-02 
1.250E+00 3.576E-05 6.288E-02 2.662E-06 1.758E-05 0.000E+00 6.293E-02 6.290E-02 
1.500E+00 2.483E-05 5.714E-02 1.930E-06 9.715E-05 0.000E+00 5.727E-02 5.724E-02 
2.000E+00 1.397E-05 4.878E-02 1.211E-06 3.865E-04 0.000E+00 4.918E-02 4.916E-02 
2.044E+00 1.337E-05 4.816E-02 1.171E-06 4.165E-04 0.000E+00 4.859E-02 4.858E-02 
3.000E+00 6.209E-06 3.836E-02 6.745E-07 1.105E-03 1.342E-05 3.949E-02 3.948E-02 
4.000E+00 3.493E-06 3.200E-02 4.621E-07 1.792E-03 5.481E-05 3.385E-02 3.385E-02 
5.000E+00 2.235E-06 2.764E-02 3.499E-07 2.403E-03 1.092E-04 3.015E-02 3.015E-02 
6.000E+00 1.552E-06 2.443E-02 2.810E-07 2.953E-03 1.677E-04 2.755E-02 2.755E-02 
