Density

1.045

Photon    Coherent Incoher. Photoel. Nuclear  Electron Tot. w/  Tot. wo/ 
Energy    Scatter. Scatter. Absorb.  Pr. Prd. Pr. Prd. Coherent Coherent 

1.000E-03 1.303E+00 1.368E-02 3.668E+03 0.000E+00 0.000E+00 3.669E+03 3.668E+03 
1.500E-03 1.198E+00 2.758E-02 1.228E+03 0.000E+00 0.000E+00 1.229E+03 1.228E+03 
2.000E-03 1.077E+00 4.296E-02 5.483E+02 0.000E+00 0.000E+00 5.494E+02 5.483E+02 
3.000E-03 8.427E-01 7.207E-02 1.699E+02 0.000E+00 0.000E+00 1.708E+02 1.700E+02 
4.000E-03 6.532E-01 9.548E-02 7.238E+01 0.000E+00 0.000E+00 7.312E+01 7.247E+01 
5.000E-03 5.137E-01 1.131E-01 3.694E+01 0.000E+00 0.000E+00 3.757E+01 3.705E+01 
6.000E-03 4.137E-01 1.263E-01 2.117E+01 0.000E+00 0.000E+00 2.171E+01 2.130E+01 
8.000E-03 2.872E-01 1.438E-01 8.706E+00 0.000E+00 0.000E+00 9.137E+00 8.850E+00 
1.000E-02 2.146E-01 1.546E-01 4.332E+00 0.000E+00 0.000E+00 4.702E+00 4.487E+00 
1.500E-02 1.248E-01 1.695E-01 1.197E+00 0.000E+00 0.000E+00 1.491E+00 1.366E+00 
2.000E-02 8.289E-02 1.770E-01 4.745E-01 0.000E+00 0.000E+00 7.344E-01 6.515E-01 
3.000E-02 4.380E-02 1.824E-01 1.269E-01 0.000E+00 0.000E+00 3.531E-01 3.093E-01 
4.000E-02 2.679E-02 1.821E-01 4.939E-02 0.000E+00 0.000E+00 2.582E-01 2.314E-01 
5.000E-02 1.803E-02 1.795E-01 2.368E-02 0.000E+00 0.000E+00 2.213E-01 2.032E-01 
6.000E-02 1.295E-02 1.762E-01 1.296E-02 0.000E+00 0.000E+00 2.021E-01 1.892E-01 
8.000E-02 7.591E-03 1.688E-01 5.006E-03 0.000E+00 0.000E+00 1.814E-01 1.739E-01 
1.000E-01 4.969E-03 1.617E-01 2.395E-03 0.000E+00 0.000E+00 1.691E-01 1.641E-01 
1.500E-01 2.266E-03 1.465E-01 6.332E-04 0.000E+00 0.000E+00 1.494E-01 1.471E-01 
2.000E-01 1.287E-03 1.346E-01 2.501E-04 0.000E+00 0.000E+00 1.361E-01 1.348E-01 
3.000E-01 5.763E-04 1.172E-01 7.062E-05 0.000E+00 0.000E+00 1.179E-01 1.173E-01 
4.000E-01 3.250E-04 1.051E-01 3.023E-05 0.000E+00 0.000E+00 1.055E-01 1.052E-01 
5.000E-01 2.083E-04 9.605E-02 1.629E-05 0.000E+00 0.000E+00 9.627E-02 9.607E-02 
6.000E-01 1.447E-04 8.886E-02 1.015E-05 0.000E+00 0.000E+00 8.901E-02 8.887E-02 
8.000E-01 8.147E-05 7.809E-02 5.120E-06 0.000E+00 0.000E+00 7.817E-02 7.809E-02 
1.000E+00 5.215E-05 7.023E-02 3.183E-06 0.000E+00 0.000E+00 7.029E-02 7.023E-02 
1.022E+00 4.994E-05 6.949E-02 2.964E-06 0.000E+00 0.000E+00 6.954E-02 6.949E-02 
1.250E+00 3.340E-05 6.280E-02 2.012E-06 1.695E-05 0.000E+00 6.285E-02 6.282E-02 
1.500E+00 2.319E-05 5.707E-02 1.460E-06 9.374E-05 0.000E+00 5.719E-02 5.717E-02 
2.000E+00 1.304E-05 4.871E-02 9.187E-07 3.732E-04 0.000E+00 4.910E-02 4.909E-02 
2.044E+00 1.249E-05 4.810E-02 8.886E-07 4.022E-04 0.000E+00 4.851E-02 4.850E-02 
3.000E+00 5.798E-06 3.832E-02 5.134E-07 1.067E-03 1.341E-05 3.940E-02 3.940E-02 
4.000E+00 3.262E-06 3.196E-02 3.525E-07 1.731E-03 5.474E-05 3.375E-02 3.375E-02 
5.000E+00 2.087E-06 2.760E-02 2.673E-07 2.322E-03 1.091E-04 3.004E-02 3.003E-02 
6.000E+00 1.449E-06 2.440E-02 2.149E-07 2.854E-03 1.675E-04 2.742E-02 2.742E-02 
