Density

3.06

Photon    Coherent Incoher. Photoel. Nuclear  Electron Tot. w/  Tot. wo/ 
Energy    Scatter. Scatter. Absorb.  Pr. Prd. Pr. Prd. Coherent Coherent 

1.000E-03 2.50E+00 1.17E-02 4.13E+03 0.00E+00 0.00E+00 4.14E+03 4.13E+03 
1.500E-03 2.28E+00 2.09E-02 1.42E+03 0.00E+00 0.00E+00 1.42E+03 1.42E+03 
2.000E-03 2.07E+00 3.03E-02 6.50E+02 0.00E+00 0.00E+00 6.52E+02 6.50E+02 
2.145E-03 2.01E+00 3.30E-02 5.35E+02 0.00E+00 0.00E+00 5.37E+02 5.35E+02 
2.145E-03 2.01E+00 3.30E-02 9.51E+02 0.00E+00 0.00E+00 9.53E+02 9.51E+02 
3.000E-03 1.69E+00 4.85E-02 4.00E+02 0.00E+00 0.00E+00 4.02E+02 4.00E+02 
4.000E-03 1.38E+00 6.43E-02 1.82E+02 0.00E+00 0.00E+00 1.83E+02 1.82E+02 
4.038E-03 1.37E+00 6.49E-02 1.77E+02 0.00E+00 0.00E+00 1.79E+02 1.77E+02 
4.038E-03 1.37E+00 6.49E-02 5.23E+02 0.00E+00 0.00E+00 5.24E+02 5.23E+02 
5.000E-03 1.15E+00 7.74E-02 3.02E+02 0.00E+00 0.00E+00 3.04E+02 3.02E+02 
6.000E-03 9.70E-01 8.80E-02 1.85E+02 0.00E+00 0.00E+00 1.86E+02 1.85E+02 
8.000E-03 7.27E-01 1.04E-01 8.43E+01 0.00E+00 0.00E+00 8.51E+01 8.44E+01 
1.000E-02 5.72E-01 1.15E-01 4.50E+01 0.00E+00 0.00E+00 4.57E+01 4.51E+01 
1.500E-02 3.51E-01 1.33E-01 1.40E+01 0.00E+00 0.00E+00 1.45E+01 1.41E+01 
2.000E-02 2.35E-01 1.43E-01 5.98E+00 0.00E+00 0.00E+00 6.35E+00 6.12E+00 
3.000E-02 1.26E-01 1.52E-01 1.76E+00 0.00E+00 0.00E+00 2.04E+00 1.91E+00 
4.000E-02 7.91E-02 1.55E-01 7.27E-01 0.00E+00 0.00E+00 9.61E-01 8.82E-01 
5.000E-02 5.45E-02 1.55E-01 3.64E-01 0.00E+00 0.00E+00 5.73E-01 5.19E-01 
6.000E-02 3.99E-02 1.53E-01 2.06E-01 0.00E+00 0.00E+00 3.99E-01 3.59E-01 
8.000E-02 2.39E-02 1.48E-01 8.34E-02 0.00E+00 0.00E+00 2.56E-01 2.32E-01 
1.000E-01 1.58E-02 1.43E-01 4.12E-02 0.00E+00 0.00E+00 2.00E-01 1.84E-01 
1.500E-01 7.38E-03 1.31E-01 1.15E-02 0.00E+00 0.00E+00 1.50E-01 1.42E-01 
2.000E-01 4.24E-03 1.21E-01 4.68E-03 0.00E+00 0.00E+00 1.30E-01 1.25E-01 
3.000E-01 1.92E-03 1.05E-01 1.37E-03 0.00E+00 0.00E+00 1.09E-01 1.07E-01 
4.000E-01 1.09E-03 9.47E-02 5.98E-04 0.00E+00 0.00E+00 9.64E-02 9.53E-02 
5.000E-01 7.01E-04 8.66E-02 3.26E-04 0.00E+00 0.00E+00 8.76E-02 8.69E-02 
6.000E-01 4.88E-04 8.01E-02 2.04E-04 0.00E+00 0.00E+00 8.08E-02 8.03E-02 
8.000E-01 2.75E-04 7.04E-02 1.04E-04 0.00E+00 0.00E+00 7.08E-02 7.06E-02 
1.000E+00 1.76E-04 6.34E-02 6.45E-05 0.00E+00 0.00E+00 6.36E-02 6.34E-02 
1.022E+00 1.69E-04 6.27E-02 6.10E-05 0.00E+00 0.00E+00 6.29E-02 6.28E-02 
1.250E+00 1.13E-04 5.67E-02 4.13E-05 3.56E-05 0.00E+00 5.69E-02 5.68E-02 
1.500E+00 7.84E-05 5.15E-02 2.99E-05 1.91E-04 0.00E+00 5.18E-02 5.17E-02 
2.000E+00 4.41E-05 4.40E-02 1.85E-05 7.48E-04 0.00E+00 4.48E-02 4.47E-02 
2.044E+00 4.22E-05 4.34E-02 1.79E-05 8.06E-04 0.00E+00 4.43E-02 4.42E-02 
3.000E+00 1.96E-05 3.46E-02 1.02E-05 2.11E-03 1.21E-05 3.67E-02 3.67E-02 
4.000E+00 1.10E-05 2.89E-02 6.88E-06 3.41E-03 4.94E-05 3.23E-02 3.23E-02 
5.000E+00 7.06E-06 2.49E-02 5.17E-06 4.55E-03 9.85E-05 2.96E-02 2.96E-02 
6.000E+00 4.90E-06 2.20E-02 4.14E-06 5.58E-03 1.51E-04 2.78E-02 2.78E-02 
