Density

0.99

Photon    Coherent Incoher. Photoel. Nuclear  Electron Tot. w/  Tot. wo/ 
Energy    Scatter. Scatter. Absorb.  Pr. Prd. Pr. Prd. Coherent Coherent 

1.000E-03 1.123E+00 1.514E-02 2.497E+03 0.000E+00 0.000E+00 2.498E+03 2.497E+03 
1.500E-03 1.008E+00 3.004E-02 8.098E+02 0.000E+00 0.000E+00 8.108E+02 8.098E+02 
2.000E-03 8.860E-01 4.612E-02 3.548E+02 0.000E+00 0.000E+00 3.557E+02 3.549E+02 
2.822E-03 7.021E-01 7.085E-02 1.290E+02 0.000E+00 0.000E+00 1.298E+02 1.291E+02 
2.822E-03 7.021E-01 7.085E-02 1.310E+02 0.000E+00 0.000E+00 1.318E+02 1.311E+02 
3.000E-03 6.676E-01 7.566E-02 1.094E+02 0.000E+00 0.000E+00 1.102E+02 1.095E+02 
4.000E-03 5.083E-01 9.858E-02 4.615E+01 0.000E+00 0.000E+00 4.675E+01 4.625E+01 
4.038E-03 5.033E-01 9.932E-02 4.484E+01 0.000E+00 0.000E+00 4.544E+01 4.494E+01 
4.038E-03 5.033E-01 9.932E-02 5.344E+01 0.000E+00 0.000E+00 5.404E+01 5.354E+01 
5.000E-03 3.987E-01 1.151E-01 2.849E+01 0.000E+00 0.000E+00 2.900E+01 2.860E+01 
6.000E-03 3.231E-01 1.271E-01 1.651E+01 0.000E+00 0.000E+00 1.696E+01 1.664E+01 
8.000E-03 2.298E-01 1.429E-01 6.915E+00 0.000E+00 0.000E+00 7.288E+00 7.058E+00 
1.000E-02 1.758E-01 1.531E-01 3.490E+00 0.000E+00 0.000E+00 3.819E+00 3.643E+00 
1.500E-02 1.050E-01 1.681E-01 9.905E-01 0.000E+00 0.000E+00 1.264E+00 1.159E+00 
2.000E-02 6.955E-02 1.758E-01 4.004E-01 0.000E+00 0.000E+00 6.458E-01 5.762E-01 
3.000E-02 3.638E-02 1.808E-01 1.101E-01 0.000E+00 0.000E+00 3.273E-01 2.909E-01 
4.000E-02 2.220E-02 1.800E-01 4.369E-02 0.000E+00 0.000E+00 2.459E-01 2.237E-01 
5.000E-02 1.493E-02 1.773E-01 2.125E-02 0.000E+00 0.000E+00 2.135E-01 1.985E-01 
6.000E-02 1.071E-02 1.738E-01 1.177E-02 0.000E+00 0.000E+00 1.963E-01 1.856E-01 
8.000E-02 6.265E-03 1.664E-01 4.622E-03 0.000E+00 0.000E+00 1.772E-01 1.710E-01 
1.000E-01 4.093E-03 1.592E-01 2.239E-03 0.000E+00 0.000E+00 1.656E-01 1.615E-01 
1.500E-01 1.862E-03 1.441E-01 6.046E-04 0.000E+00 0.000E+00 1.466E-01 1.447E-01 
2.000E-01 1.057E-03 1.323E-01 2.419E-04 0.000E+00 0.000E+00 1.336E-01 1.326E-01 
3.000E-01 4.733E-04 1.153E-01 6.930E-05 0.000E+00 0.000E+00 1.158E-01 1.154E-01 
4.000E-01 2.669E-04 1.034E-01 2.991E-05 0.000E+00 0.000E+00 1.037E-01 1.034E-01 
5.000E-01 1.711E-04 9.444E-02 1.620E-05 0.000E+00 0.000E+00 9.463E-02 9.446E-02 
6.000E-01 1.189E-04 8.737E-02 1.012E-05 0.000E+00 0.000E+00 8.749E-02 8.738E-02 
8.000E-01 6.690E-05 7.676E-02 5.119E-06 0.000E+00 0.000E+00 7.683E-02 7.676E-02 
1.000E+00 4.283E-05 6.903E-02 3.182E-06 0.000E+00 0.000E+00 6.908E-02 6.903E-02 
1.022E+00 4.101E-05 6.832E-02 2.978E-06 0.000E+00 0.000E+00 6.836E-02 6.832E-02 
1.250E+00 2.742E-05 6.173E-02 2.019E-06 1.492E-05 0.000E+00 6.177E-02 6.175E-02 
1.500E+00 1.904E-05 5.612E-02 1.463E-06 8.261E-05 0.000E+00 5.622E-02 5.620E-02 
2.000E+00 1.071E-05 4.788E-02 9.149E-07 3.290E-04 0.000E+00 4.822E-02 4.821E-02 
2.044E+00 1.025E-05 4.729E-02 8.847E-07 3.546E-04 0.000E+00 4.765E-02 4.764E-02 
3.000E+00 4.761E-06 3.767E-02 5.071E-07 9.411E-04 1.318E-05 3.863E-02 3.862E-02 
4.000E+00 2.679E-06 3.142E-02 3.462E-07 1.527E-03 5.381E-05 3.300E-02 3.300E-02 
5.000E+00 1.714E-06 2.714E-02 2.617E-07 2.049E-03 1.072E-04 2.929E-02 2.929E-02 
6.000E+00 1.190E-06 2.398E-02 2.098E-07 2.518E-03 1.647E-04 2.667E-02 2.667E-02 
