Density

1

Photon    Coherent Incoher. Photoel. Nuclear  Electron Tot. w/  Tot. wo/ 
Energy    Scatter. Scatter. Absorb.  Pr. Prd. Pr. Prd. Coherent Coherent 

1.000E-03 1.20E+00 1.48E-02 3.07E+03 0.00E+00 0.00E+00 3.07E+03 3.07E+03 
1.035E-03 1.19E+00 1.57E-02 2.80E+03 0.00E+00 0.00E+00 2.80E+03 2.80E+03 
1.072E-03 1.19E+00 1.67E-02 2.54E+03 0.00E+00 0.00E+00 2.55E+03 2.54E+03 
1.072E-03 1.19E+00 1.67E-02 2.55E+03 0.00E+00 0.00E+00 2.55E+03 2.55E+03 
1.500E-03 1.09E+00 2.96E-02 1.02E+03 0.00E+00 0.00E+00 1.02E+03 1.02E+03 
2.000E-03 9.75E-01 4.58E-02 4.52E+02 0.00E+00 0.00E+00 4.53E+02 4.52E+02 
2.145E-03 9.40E-01 5.04E-02 3.69E+02 0.00E+00 0.00E+00 3.70E+02 3.69E+02 
2.145E-03 9.40E-01 5.04E-02 3.71E+02 0.00E+00 0.00E+00 3.72E+02 3.71E+02 
2.303E-03 9.02E-01 5.54E-02 3.02E+02 0.00E+00 0.00E+00 3.03E+02 3.02E+02 
2.472E-03 8.63E-01 6.06E-02 2.46E+02 0.00E+00 0.00E+00 2.47E+02 2.46E+02 
2.472E-03 8.63E-01 6.06E-02 2.49E+02 0.00E+00 0.00E+00 2.50E+02 2.49E+02 
2.641E-03 8.25E-01 6.56E-02 2.06E+02 0.00E+00 0.00E+00 2.07E+02 2.06E+02 
2.822E-03 7.87E-01 7.08E-02 1.69E+02 0.00E+00 0.00E+00 1.70E+02 1.70E+02 
2.822E-03 7.87E-01 7.08E-02 1.71E+02 0.00E+00 0.00E+00 1.72E+02 1.71E+02 
3.000E-03 7.50E-01 7.57E-02 1.43E+02 0.00E+00 0.00E+00 1.44E+02 1.43E+02 
4.000E-03 5.77E-01 9.93E-02 6.09E+01 0.00E+00 0.00E+00 6.15E+01 6.10E+01 
5.000E-03 4.53E-01 1.17E-01 3.10E+01 0.00E+00 0.00E+00 3.16E+01 3.12E+01 
6.000E-03 3.65E-01 1.29E-01 1.78E+01 0.00E+00 0.00E+00 1.83E+01 1.79E+01 
8.000E-03 2.56E-01 1.46E-01 7.31E+00 0.00E+00 0.00E+00 7.71E+00 7.46E+00 
1.000E-02 1.93E-01 1.57E-01 3.64E+00 0.00E+00 0.00E+00 3.99E+00 3.79E+00 
1.500E-02 1.13E-01 1.71E-01 1.01E+00 0.00E+00 0.00E+00 1.29E+00 1.18E+00 
2.000E-02 7.51E-02 1.79E-01 3.99E-01 0.00E+00 0.00E+00 6.53E-01 5.78E-01 
3.000E-02 3.95E-02 1.84E-01 1.07E-01 0.00E+00 0.00E+00 3.30E-01 2.91E-01 
4.000E-02 2.41E-02 1.83E-01 4.16E-02 0.00E+00 0.00E+00 2.49E-01 2.25E-01 
5.000E-02 1.62E-02 1.81E-01 2.00E-02 0.00E+00 0.00E+00 2.17E-01 2.00E-01 
6.000E-02 1.16E-02 1.77E-01 1.09E-02 0.00E+00 0.00E+00 2.00E-01 1.88E-01 
8.000E-02 6.81E-03 1.70E-01 4.23E-03 0.00E+00 0.00E+00 1.81E-01 1.74E-01 
1.000E-01 4.45E-03 1.62E-01 2.02E-03 0.00E+00 0.00E+00 1.69E-01 1.64E-01 
1.500E-01 2.03E-03 1.47E-01 5.36E-04 0.00E+00 0.00E+00 1.50E-01 1.47E-01 
2.000E-01 1.15E-03 1.35E-01 2.12E-04 0.00E+00 0.00E+00 1.36E-01 1.35E-01 
3.000E-01 5.15E-04 1.18E-01 5.99E-05 0.00E+00 0.00E+00 1.18E-01 1.18E-01 
4.000E-01 2.91E-04 1.05E-01 2.56E-05 0.00E+00 0.00E+00 1.06E-01 1.05E-01 
5.000E-01 1.86E-04 9.63E-02 1.38E-05 0.00E+00 0.00E+00 9.65E-02 9.63E-02 
6.000E-01 1.29E-04 8.91E-02 8.61E-06 0.00E+00 0.00E+00 8.92E-02 8.91E-02 
8.000E-01 7.28E-05 7.83E-02 4.35E-06 0.00E+00 0.00E+00 7.84E-02 7.83E-02 
1.000E+00 4.66E-05 7.04E-02 2.70E-06 0.00E+00 0.00E+00 7.05E-02 7.04E-02 
1.022E+00 4.46E-05 6.97E-02 2.52E-06 0.00E+00 0.00E+00 6.97E-02 6.97E-02 
1.250E+00 2.99E-05 6.30E-02 1.71E-06 1.58E-05 0.00E+00 6.30E-02 6.30E-02 
1.500E+00 2.07E-05 5.72E-02 1.24E-06 8.73E-05 0.00E+00 5.73E-02 5.73E-02 
2.000E+00 1.17E-05 4.88E-02 7.79E-07 3.48E-04 0.00E+00 4.92E-02 4.92E-02 
2.044E+00 1.12E-05 4.82E-02 7.54E-07 3.75E-04 0.00E+00 4.86E-02 4.86E-02 
3.000E+00 5.18E-06 3.84E-02 4.35E-07 9.95E-04 1.34E-05 3.94E-02 3.94E-02 
4.000E+00 2.92E-06 3.20E-02 2.99E-07 1.61E-03 5.49E-05 3.37E-02 3.37E-02 
5.000E+00 1.87E-06 2.77E-02 2.26E-07 2.17E-03 1.09E-04 2.99E-02 2.99E-02 
6.000E+00 1.30E-06 2.45E-02 1.82E-07 2.66E-03 1.68E-04 2.73E-02 2.73E-02 
