Density

1

Photon    Coherent Incoher. Photoel. Nuclear  Electron Tot. w/  Tot. wo/ 
Energy    Scatter. Scatter. Absorb.  Pr. Prd. Pr. Prd. Coherent Coherent 

1.000E-03 1.39E+00 1.32E-02 4.07E+03 0.00E+00 0.00E+00 4.07E+03 4.07E+03 
1.500E-03 1.29E+00 2.67E-02 1.37E+03 0.00E+00 0.00E+00 1.37E+03 1.37E+03 
2.000E-03 1.16E+00 4.17E-02 6.16E+02 0.00E+00 0.00E+00 6.17E+02 6.16E+02 
2.822E-03 9.62E-01 6.57E-02 2.29E+02 0.00E+00 0.00E+00 2.30E+02 2.29E+02 
2.822E-03 9.62E-01 6.57E-02 2.38E+02 0.00E+00 0.00E+00 2.39E+02 2.38E+02 
3.000E-03 9.21E-01 7.05E-02 2.00E+02 0.00E+00 0.00E+00 2.01E+02 2.00E+02 
4.000E-03 7.19E-01 9.39E-02 8.60E+01 0.00E+00 0.00E+00 8.68E+01 8.61E+01 
4.038E-03 7.12E-01 9.47E-02 8.36E+01 0.00E+00 0.00E+00 8.44E+01 8.37E+01 
4.038E-03 7.12E-01 9.47E-02 8.69E+01 0.00E+00 0.00E+00 8.77E+01 8.70E+01 
5.000E-03 5.67E-01 1.12E-01 4.61E+01 0.00E+00 0.00E+00 4.68E+01 4.62E+01 
6.000E-03 4.57E-01 1.25E-01 2.67E+01 0.00E+00 0.00E+00 2.72E+01 2.68E+01 
8.000E-03 3.17E-01 1.43E-01 1.11E+01 0.00E+00 0.00E+00 1.16E+01 1.13E+01 
1.000E-02 2.36E-01 1.54E-01 5.58E+00 0.00E+00 0.00E+00 5.97E+00 5.74E+00 
1.500E-02 1.37E-01 1.69E-01 1.57E+00 0.00E+00 0.00E+00 1.88E+00 1.74E+00 
2.000E-02 9.09E-02 1.77E-01 6.30E-01 0.00E+00 0.00E+00 8.98E-01 8.07E-01 
3.000E-02 4.82E-02 1.82E-01 1.71E-01 0.00E+00 0.00E+00 4.02E-01 3.54E-01 
4.000E-02 2.96E-02 1.82E-01 6.73E-02 0.00E+00 0.00E+00 2.79E-01 2.50E-01 
5.000E-02 1.99E-02 1.80E-01 3.25E-02 0.00E+00 0.00E+00 2.32E-01 2.13E-01 
6.000E-02 1.43E-02 1.77E-01 1.79E-02 0.00E+00 0.00E+00 2.09E-01 1.95E-01 
8.000E-02 8.42E-03 1.69E-01 6.98E-03 0.00E+00 0.00E+00 1.85E-01 1.76E-01 
1.000E-01 5.52E-03 1.62E-01 3.36E-03 0.00E+00 0.00E+00 1.71E-01 1.66E-01 
1.500E-01 2.52E-03 1.47E-01 8.98E-04 0.00E+00 0.00E+00 1.51E-01 1.48E-01 
2.000E-01 1.43E-03 1.35E-01 3.57E-04 0.00E+00 0.00E+00 1.37E-01 1.36E-01 
3.000E-01 6.43E-04 1.18E-01 1.02E-04 0.00E+00 0.00E+00 1.19E-01 1.18E-01 
4.000E-01 3.63E-04 1.06E-01 4.36E-05 0.00E+00 0.00E+00 1.06E-01 1.06E-01 
5.000E-01 2.32E-04 9.65E-02 2.36E-05 0.00E+00 0.00E+00 9.68E-02 9.65E-02 
6.000E-01 1.61E-04 8.93E-02 1.47E-05 0.00E+00 0.00E+00 8.95E-02 8.93E-02 
8.000E-01 9.09E-05 7.85E-02 7.43E-06 0.00E+00 0.00E+00 7.86E-02 7.85E-02 
1.000E+00 5.82E-05 7.06E-02 4.62E-06 0.00E+00 0.00E+00 7.06E-02 7.06E-02 
1.022E+00 5.57E-05 6.98E-02 4.32E-06 0.00E+00 0.00E+00 6.99E-02 6.98E-02 
1.250E+00 3.73E-05 6.31E-02 2.93E-06 1.81E-05 0.00E+00 6.32E-02 6.31E-02 
1.500E+00 2.59E-05 5.73E-02 2.12E-06 9.97E-05 0.00E+00 5.75E-02 5.74E-02 
2.000E+00 1.46E-05 4.90E-02 1.33E-06 3.97E-04 0.00E+00 4.94E-02 4.94E-02 
2.044E+00 1.39E-05 4.83E-02 1.29E-06 4.27E-04 0.00E+00 4.88E-02 4.88E-02 
3.000E+00 6.47E-06 3.85E-02 7.41E-07 1.13E-03 1.35E-05 3.97E-02 3.96E-02 
4.000E+00 3.64E-06 3.21E-02 5.08E-07 1.84E-03 5.50E-05 3.40E-02 3.40E-02 
5.000E+00 2.33E-06 2.77E-02 3.84E-07 2.46E-03 1.10E-04 3.03E-02 3.03E-02 
6.000E+00 1.62E-06 2.45E-02 3.08E-07 3.03E-03 1.68E-04 2.77E-02 2.77E-02 
