Density

1.35

Photon    Coherent Incoher. Photoel. Nuclear  Electron Tot. w/  Tot. wo/ 
Energy    Scatter. Scatter. Absorb.  Pr. Prd. Pr. Prd. Coherent Coherent 

1.000E-03 2.14E+00 1.22E-02 3.86E+03 0.00E+00 0.00E+00 3.87E+03 3.86E+03 
1.500E-03 1.97E+00 2.37E-02 1.32E+03 0.00E+00 0.00E+00 1.32E+03 1.32E+03 
2.000E-03 1.78E+00 3.60E-02 5.99E+02 0.00E+00 0.00E+00 6.01E+02 5.99E+02 
2.822E-03 1.49E+00 5.56E-02 2.27E+02 0.00E+00 0.00E+00 2.29E+02 2.28E+02 
2.822E-03 1.49E+00 5.56E-02 6.11E+02 0.00E+00 0.00E+00 6.13E+02 6.11E+02 
3.000E-03 1.44E+00 5.95E-02 5.39E+02 0.00E+00 0.00E+00 5.41E+02 5.39E+02 
4.000E-03 1.16E+00 7.88E-02 2.51E+02 0.00E+00 0.00E+00 2.52E+02 2.51E+02 
4.038E-03 1.15E+00 7.94E-02 2.44E+02 0.00E+00 0.00E+00 2.45E+02 2.44E+02 
4.038E-03 1.15E+00 7.94E-02 3.79E+02 0.00E+00 0.00E+00 3.80E+02 3.79E+02 
5.000E-03 9.50E-01 9.38E-02 2.16E+02 0.00E+00 0.00E+00 2.17E+02 2.16E+02 
6.000E-03 7.97E-01 1.05E-01 1.32E+02 0.00E+00 0.00E+00 1.33E+02 1.32E+02 
8.000E-03 5.92E-01 1.22E-01 5.93E+01 0.00E+00 0.00E+00 6.01E+01 5.95E+01 
1.000E-02 4.64E-01 1.33E-01 3.15E+01 0.00E+00 0.00E+00 3.21E+01 3.16E+01 
1.500E-02 2.81E-01 1.49E-01 9.68E+00 0.00E+00 0.00E+00 1.01E+01 9.83E+00 
2.000E-02 1.87E-01 1.58E-01 4.11E+00 0.00E+00 0.00E+00 4.45E+00 4.27E+00 
3.000E-02 9.99E-02 1.66E-01 1.20E+00 0.00E+00 0.00E+00 1.47E+00 1.37E+00 
4.000E-02 6.26E-02 1.68E-01 4.94E-01 0.00E+00 0.00E+00 7.24E-01 6.61E-01 
5.000E-02 4.30E-02 1.66E-01 2.46E-01 0.00E+00 0.00E+00 4.56E-01 4.13E-01 
6.000E-02 3.14E-02 1.64E-01 1.39E-01 0.00E+00 0.00E+00 3.35E-01 3.03E-01 
8.000E-02 1.87E-02 1.59E-01 5.60E-02 0.00E+00 0.00E+00 2.33E-01 2.15E-01 
1.000E-01 1.24E-02 1.53E-01 2.76E-02 0.00E+00 0.00E+00 1.93E-01 1.80E-01 
1.500E-01 5.76E-03 1.39E-01 7.66E-03 0.00E+00 0.00E+00 1.52E-01 1.47E-01 
2.000E-01 3.31E-03 1.28E-01 3.12E-03 0.00E+00 0.00E+00 1.34E-01 1.31E-01 
3.000E-01 1.50E-03 1.12E-01 9.08E-04 0.00E+00 0.00E+00 1.14E-01 1.13E-01 
4.000E-01 8.47E-04 1.00E-01 3.96E-04 0.00E+00 0.00E+00 1.01E-01 1.01E-01 
5.000E-01 5.44E-04 9.16E-02 2.16E-04 0.00E+00 0.00E+00 9.24E-02 9.18E-02 
6.000E-01 3.79E-04 8.48E-02 1.35E-04 0.00E+00 0.00E+00 8.53E-02 8.49E-02 
8.000E-01 2.13E-04 7.45E-02 6.85E-05 0.00E+00 0.00E+00 7.48E-02 7.46E-02 
1.000E+00 1.37E-04 6.70E-02 4.26E-05 0.00E+00 0.00E+00 6.72E-02 6.71E-02 
1.022E+00 1.31E-04 6.63E-02 4.03E-05 0.00E+00 0.00E+00 6.65E-02 6.64E-02 
1.250E+00 8.76E-05 6.00E-02 2.73E-05 2.96E-05 0.00E+00 6.01E-02 6.00E-02 
1.500E+00 6.08E-05 5.45E-02 1.97E-05 1.59E-04 0.00E+00 5.47E-02 5.47E-02 
2.000E+00 3.42E-05 4.65E-02 1.22E-05 6.27E-04 0.00E+00 4.72E-02 4.71E-02 
2.044E+00 3.28E-05 4.59E-02 1.18E-05 6.76E-04 0.00E+00 4.66E-02 4.66E-02 
3.000E+00 1.52E-05 3.66E-02 6.72E-06 1.78E-03 1.28E-05 3.84E-02 3.84E-02 
4.000E+00 8.56E-06 3.05E-02 4.56E-06 2.87E-03 5.23E-05 3.35E-02 3.34E-02 
5.000E+00 5.48E-06 2.64E-02 3.43E-06 3.84E-03 1.04E-04 3.03E-02 3.03E-02 
6.000E+00 3.80E-06 2.33E-02 2.74E-06 4.70E-03 1.60E-04 2.82E-02 2.82E-02 
