Density

1.1

Photon    Coherent Incoher. Photoel. Nuclear  Electron Tot. w/  Tot. wo/ 
Energy    Scatter. Scatter. Absorb.  Pr. Prd. Pr. Prd. Coherent Coherent 

1.000E-03 1.389E+00 1.308E-02 3.782E+03 0.000E+00 0.000E+00 3.783E+03 3.782E+03 
1.035E-03 1.381E+00 1.392E-02 3.447E+03 0.000E+00 0.000E+00 3.448E+03 3.447E+03 
1.072E-03 1.373E+00 1.480E-02 3.141E+03 0.000E+00 0.000E+00 3.143E+03 3.141E+03 
1.072E-03 1.373E+00 1.480E-02 3.171E+03 0.000E+00 0.000E+00 3.172E+03 3.171E+03 
1.500E-03 1.280E+00 2.638E-02 1.285E+03 0.000E+00 0.000E+00 1.286E+03 1.285E+03 
2.000E-03 1.154E+00 4.112E-02 5.755E+02 0.000E+00 0.000E+00 5.767E+02 5.755E+02 
2.145E-03 1.117E+00 4.542E-02 4.714E+02 0.000E+00 0.000E+00 4.725E+02 4.714E+02 
2.145E-03 1.117E+00 4.542E-02 5.203E+02 0.000E+00 0.000E+00 5.215E+02 5.203E+02 
2.303E-03 1.077E+00 5.002E-02 4.267E+02 0.000E+00 0.000E+00 4.278E+02 4.268E+02 
2.472E-03 1.034E+00 5.488E-02 3.496E+02 0.000E+00 0.000E+00 3.507E+02 3.497E+02 
2.472E-03 1.034E+00 5.488E-02 3.663E+02 0.000E+00 0.000E+00 3.674E+02 3.663E+02 
2.641E-03 9.928E-01 5.962E-02 3.043E+02 0.000E+00 0.000E+00 3.053E+02 3.044E+02 
2.822E-03 9.497E-01 6.455E-02 2.525E+02 0.000E+00 0.000E+00 2.535E+02 2.526E+02 
2.822E-03 9.497E-01 6.455E-02 2.569E+02 0.000E+00 0.000E+00 2.579E+02 2.569E+02 
3.000E-03 9.089E-01 6.921E-02 2.163E+02 0.000E+00 0.000E+00 2.173E+02 2.164E+02 
4.000E-03 7.097E-01 9.203E-02 9.412E+01 0.000E+00 0.000E+00 9.492E+01 9.421E+01 
5.000E-03 5.621E-01 1.094E-01 4.880E+01 0.000E+00 0.000E+00 4.947E+01 4.890E+01 
6.000E-03 4.555E-01 1.225E-01 2.832E+01 0.000E+00 0.000E+00 2.889E+01 2.844E+01 
8.000E-03 3.189E-01 1.401E-01 1.186E+01 0.000E+00 0.000E+00 1.232E+01 1.200E+01 
1.000E-02 2.390E-01 1.511E-01 5.985E+00 0.000E+00 0.000E+00 6.375E+00 6.136E+00 
1.500E-02 1.389E-01 1.662E-01 1.693E+00 0.000E+00 0.000E+00 1.998E+00 1.859E+00 
2.000E-02 9.213E-02 1.739E-01 6.822E-01 0.000E+00 0.000E+00 9.483E-01 8.562E-01 
3.000E-02 4.881E-02 1.797E-01 1.864E-01 0.000E+00 0.000E+00 4.148E-01 3.660E-01 
4.000E-02 2.996E-02 1.796E-01 7.355E-02 0.000E+00 0.000E+00 2.832E-01 2.532E-01 
5.000E-02 2.022E-02 1.773E-01 3.562E-02 0.000E+00 0.000E+00 2.332E-01 2.130E-01 
6.000E-02 1.455E-02 1.741E-01 1.965E-02 0.000E+00 0.000E+00 2.083E-01 1.938E-01 
8.000E-02 8.544E-03 1.670E-01 7.675E-03 0.000E+00 0.000E+00 1.832E-01 1.747E-01 
1.000E-01 5.602E-03 1.601E-01 3.702E-03 0.000E+00 0.000E+00 1.694E-01 1.638E-01 
1.500E-01 2.561E-03 1.451E-01 9.911E-04 0.000E+00 0.000E+00 1.486E-01 1.461E-01 
2.000E-01 1.457E-03 1.333E-01 3.945E-04 0.000E+00 0.000E+00 1.351E-01 1.337E-01 
3.000E-01 6.531E-04 1.161E-01 1.124E-04 0.000E+00 0.000E+00 1.169E-01 1.163E-01 
4.000E-01 3.685E-04 1.041E-01 4.832E-05 0.000E+00 0.000E+00 1.046E-01 1.042E-01 
5.000E-01 2.362E-04 9.516E-02 2.612E-05 0.000E+00 0.000E+00 9.542E-02 9.519E-02 
6.000E-01 1.642E-04 8.804E-02 1.629E-05 0.000E+00 0.000E+00 8.822E-02 8.806E-02 
8.000E-01 9.243E-05 7.737E-02 8.235E-06 0.000E+00 0.000E+00 7.747E-02 7.738E-02 
1.000E+00 5.917E-05 6.959E-02 5.119E-06 0.000E+00 0.000E+00 6.965E-02 6.959E-02 
1.022E+00 5.666E-05 6.885E-02 4.792E-06 0.000E+00 0.000E+00 6.891E-02 6.886E-02 
1.250E+00 3.789E-05 6.222E-02 3.251E-06 1.813E-05 0.000E+00 6.228E-02 6.224E-02 
1.500E+00 2.631E-05 5.655E-02 2.357E-06 1.001E-04 0.000E+00 5.668E-02 5.665E-02 
2.000E+00 1.480E-05 4.827E-02 1.477E-06 3.980E-04 0.000E+00 4.868E-02 4.867E-02 
2.044E+00 1.417E-05 4.766E-02 1.428E-06 4.289E-04 0.000E+00 4.810E-02 4.809E-02 
3.000E+00 6.579E-06 3.797E-02 8.212E-07 1.137E-03 1.328E-05 3.912E-02 3.912E-02 
4.000E+00 3.701E-06 3.167E-02 5.620E-07 1.844E-03 5.424E-05 3.357E-02 3.357E-02 
5.000E+00 2.368E-06 2.735E-02 4.252E-07 2.473E-03 1.081E-04 2.993E-02 2.993E-02 
6.000E+00 1.645E-06 2.417E-02 3.413E-07 3.038E-03 1.660E-04 2.738E-02 2.738E-02 
