Density

1.34

Photon    Coherent Incoher. Photoel. Nuclear  Electron Tot. w/  Tot. wo/ 
Energy    Scatter. Scatter. Absorb.  Pr. Prd. Pr. Prd. Coherent Coherent 

1.000E-03 1.445E+00 1.434E-02 3.014E+03 0.000E+00 0.000E+00 3.016E+03 3.014E+03 
1.500E-03 1.308E+00 2.785E-02 9.997E+02 0.000E+00 0.000E+00 1.001E+03 9.998E+02 
2.000E-03 1.165E+00 4.233E-02 4.453E+02 0.000E+00 0.000E+00 4.465E+02 4.453E+02 
2.822E-03 9.505E-01 6.484E-02 1.652E+02 0.000E+00 0.000E+00 1.662E+02 1.653E+02 
2.822E-03 9.505E-01 6.484E-02 1.659E+02 0.000E+00 0.000E+00 1.669E+02 1.660E+02 
3.000E-03 9.098E-01 6.926E-02 1.390E+02 0.000E+00 0.000E+00 1.400E+02 1.391E+02 
4.000E-03 7.148E-01 9.066E-02 5.961E+01 0.000E+00 0.000E+00 6.042E+01 5.970E+01 
4.038E-03 7.084E-01 9.136E-02 5.796E+01 0.000E+00 0.000E+00 5.876E+01 5.805E+01 
4.038E-03 7.084E-01 9.136E-02 1.668E+02 0.000E+00 0.000E+00 1.676E+02 1.668E+02 
5.000E-03 5.737E-01 1.066E-01 9.517E+01 0.000E+00 0.000E+00 9.585E+01 9.527E+01 
6.000E-03 4.725E-01 1.183E-01 5.776E+01 0.000E+00 0.000E+00 5.835E+01 5.788E+01 
8.000E-03 3.433E-01 1.343E-01 2.595E+01 0.000E+00 0.000E+00 2.643E+01 2.609E+01 
1.000E-02 2.664E-01 1.446E-01 1.375E+01 0.000E+00 0.000E+00 1.416E+01 1.390E+01 
1.500E-02 1.622E-01 1.601E-01 4.223E+00 0.000E+00 0.000E+00 4.545E+00 4.383E+00 
2.000E-02 1.083E-01 1.683E-01 1.794E+00 0.000E+00 0.000E+00 2.070E+00 1.962E+00 
3.000E-02 5.738E-02 1.743E-01 5.243E-01 0.000E+00 0.000E+00 7.560E-01 6.986E-01 
4.000E-02 3.555E-02 1.744E-01 2.160E-01 0.000E+00 0.000E+00 4.260E-01 3.904E-01 
5.000E-02 2.423E-02 1.722E-01 1.079E-01 0.000E+00 0.000E+00 3.043E-01 2.800E-01 
6.000E-02 1.757E-02 1.691E-01 6.093E-02 0.000E+00 0.000E+00 2.476E-01 2.301E-01 
8.000E-02 1.042E-02 1.623E-01 2.461E-02 0.000E+00 0.000E+00 1.974E-01 1.869E-01 
1.000E-01 6.868E-03 1.556E-01 1.215E-02 0.000E+00 0.000E+00 1.747E-01 1.678E-01 
1.500E-01 3.167E-03 1.412E-01 3.380E-03 0.000E+00 0.000E+00 1.477E-01 1.445E-01 
2.000E-01 1.811E-03 1.297E-01 1.376E-03 0.000E+00 0.000E+00 1.329E-01 1.311E-01 
3.000E-01 8.167E-04 1.131E-01 4.021E-04 0.000E+00 0.000E+00 1.143E-01 1.135E-01 
4.000E-01 4.622E-04 1.014E-01 1.755E-04 0.000E+00 0.000E+00 1.021E-01 1.016E-01 
5.000E-01 2.966E-04 9.269E-02 9.561E-05 0.000E+00 0.000E+00 9.308E-02 9.278E-02 
6.000E-01 2.063E-04 8.575E-02 5.992E-05 0.000E+00 0.000E+00 8.602E-02 8.581E-02 
8.000E-01 1.162E-04 7.535E-02 3.041E-05 0.000E+00 0.000E+00 7.550E-02 7.538E-02 
1.000E+00 7.444E-05 6.777E-02 1.891E-05 0.000E+00 0.000E+00 6.786E-02 6.779E-02 
1.022E+00 7.128E-05 6.707E-02 1.787E-05 0.000E+00 0.000E+00 6.715E-02 6.708E-02 
1.250E+00 4.767E-05 6.060E-02 1.210E-05 1.981E-05 0.000E+00 6.068E-02 6.064E-02 
1.500E+00 3.311E-05 5.509E-02 8.747E-06 1.080E-04 0.000E+00 5.524E-02 5.521E-02 
2.000E+00 1.863E-05 4.701E-02 5.430E-06 4.275E-04 0.000E+00 4.746E-02 4.744E-02 
2.044E+00 1.783E-05 4.643E-02 5.248E-06 4.608E-04 0.000E+00 4.691E-02 4.689E-02 
3.000E+00 8.281E-06 3.698E-02 2.978E-06 1.216E-03 1.294E-05 3.822E-02 3.821E-02 
4.000E+00 4.659E-06 3.085E-02 2.019E-06 1.967E-03 5.283E-05 3.288E-02 3.287E-02 
5.000E+00 2.981E-06 2.664E-02 1.519E-06 2.636E-03 1.053E-04 2.939E-02 2.938E-02 
6.000E+00 2.071E-06 2.355E-02 1.214E-06 3.236E-03 1.617E-04 2.695E-02 2.695E-02 
