Density

1.56

Photon    Coherent Incoher. Photoel. Nuclear  Electron Tot. w/  Tot. wo/ 
Energy    Scatter. Scatter. Absorb.  Pr. Prd. Pr. Prd. Coherent Coherent 

1.000E-03 1.685E+00 1.355E-02 3.414E+03 0.000E+00 0.000E+00 3.416E+03 3.414E+03 
1.500E-03 1.531E+00 2.586E-02 1.146E+03 0.000E+00 0.000E+00 1.147E+03 1.146E+03 
2.000E-03 1.373E+00 3.900E-02 5.146E+02 0.000E+00 0.000E+00 5.160E+02 5.147E+02 
2.822E-03 1.136E+00 5.965E-02 1.929E+02 0.000E+00 0.000E+00 1.941E+02 1.929E+02 
2.822E-03 1.136E+00 5.965E-02 1.940E+02 0.000E+00 0.000E+00 1.952E+02 1.941E+02 
3.000E-03 1.090E+00 6.375E-02 1.629E+02 0.000E+00 0.000E+00 1.640E+02 1.629E+02 
4.000E-03 8.688E-01 8.390E-02 7.049E+01 0.000E+00 0.000E+00 7.144E+01 7.057E+01 
4.038E-03 8.613E-01 8.457E-02 6.856E+01 0.000E+00 0.000E+00 6.950E+01 6.864E+01 
4.038E-03 8.613E-01 8.457E-02 2.497E+02 0.000E+00 0.000E+00 2.507E+02 2.498E+02 
5.000E-03 7.040E-01 9.926E-02 1.439E+02 0.000E+00 0.000E+00 1.448E+02 1.440E+02 
6.000E-03 5.837E-01 1.109E-01 8.793E+01 0.000E+00 0.000E+00 8.862E+01 8.804E+01 
8.000E-03 4.276E-01 1.268E-01 3.987E+01 0.000E+00 0.000E+00 4.042E+01 3.999E+01 
1.000E-02 3.336E-01 1.374E-01 2.125E+01 0.000E+00 0.000E+00 2.172E+01 2.139E+01 
1.500E-02 2.046E-01 1.532E-01 6.583E+00 0.000E+00 0.000E+00 6.941E+00 6.736E+00 
2.000E-02 1.369E-01 1.619E-01 2.810E+00 0.000E+00 0.000E+00 3.109E+00 2.972E+00 
3.000E-02 7.293E-02 1.688E-01 8.263E-01 0.000E+00 0.000E+00 1.068E+00 9.951E-01 
4.000E-02 4.543E-02 1.694E-01 3.417E-01 0.000E+00 0.000E+00 5.565E-01 5.111E-01 
5.000E-02 3.111E-02 1.677E-01 1.710E-01 0.000E+00 0.000E+00 3.698E-01 3.387E-01 
6.000E-02 2.264E-02 1.650E-01 9.676E-02 0.000E+00 0.000E+00 2.844E-01 2.617E-01 
8.000E-02 1.349E-02 1.587E-01 3.917E-02 0.000E+00 0.000E+00 2.113E-01 1.979E-01 
1.000E-01 8.918E-03 1.523E-01 1.938E-02 0.000E+00 0.000E+00 1.806E-01 1.717E-01 
1.500E-01 4.130E-03 1.384E-01 5.401E-03 0.000E+00 0.000E+00 1.479E-01 1.438E-01 
2.000E-01 2.368E-03 1.273E-01 2.203E-03 0.000E+00 0.000E+00 1.318E-01 1.295E-01 
3.000E-01 1.070E-03 1.110E-01 6.445E-04 0.000E+00 0.000E+00 1.127E-01 1.117E-01 
4.000E-01 6.062E-04 9.959E-02 2.814E-04 0.000E+00 0.000E+00 1.005E-01 9.987E-02 
5.000E-01 3.893E-04 9.101E-02 1.534E-04 0.000E+00 0.000E+00 9.156E-02 9.117E-02 
6.000E-01 2.708E-04 8.421E-02 9.618E-05 0.000E+00 0.000E+00 8.458E-02 8.431E-02 
8.000E-01 1.526E-04 7.401E-02 4.883E-05 0.000E+00 0.000E+00 7.421E-02 7.406E-02 
1.000E+00 9.776E-05 6.656E-02 3.036E-05 0.000E+00 0.000E+00 6.669E-02 6.659E-02 
1.022E+00 9.362E-05 6.587E-02 2.871E-05 0.000E+00 0.000E+00 6.599E-02 6.590E-02 
1.250E+00 6.261E-05 5.953E-02 1.944E-05 2.345E-05 0.000E+00 5.963E-02 5.957E-02 
1.500E+00 4.349E-05 5.411E-02 1.405E-05 1.269E-04 0.000E+00 5.429E-02 5.425E-02 
2.000E+00 2.447E-05 4.617E-02 8.718E-06 5.009E-04 0.000E+00 4.671E-02 4.668E-02 
2.044E+00 2.343E-05 4.560E-02 8.426E-06 5.398E-04 0.000E+00 4.617E-02 4.615E-02 
3.000E+00 1.088E-05 3.633E-02 4.778E-06 1.420E-03 1.271E-05 3.777E-02 3.776E-02 
4.000E+00 6.121E-06 3.030E-02 3.237E-06 2.295E-03 5.189E-05 3.266E-02 3.265E-02 
5.000E+00 3.917E-06 2.617E-02 2.434E-06 3.073E-03 1.034E-04 2.935E-02 2.935E-02 
6.000E+00 2.720E-06 2.313E-02 1.945E-06 3.771E-03 1.588E-04 2.707E-02 2.706E-02 
