Density

1.17

Photon    Coherent Incoher. Photoel. Nuclear  Electron Tot. w/  Tot. wo/ 
Energy    Scatter. Scatter. Absorb.  Pr. Prd. Pr. Prd. Coherent Coherent 

1.000E-03 1.207E+00 1.512E-02 2.615E+03 0.000E+00 0.000E+00 2.616E+03 2.615E+03 
1.500E-03 1.086E+00 2.982E-02 8.538E+02 0.000E+00 0.000E+00 8.549E+02 8.538E+02 
2.000E-03 9.586E-01 4.564E-02 3.760E+02 0.000E+00 0.000E+00 3.770E+02 3.760E+02 
2.822E-03 7.669E-01 6.999E-02 1.376E+02 0.000E+00 0.000E+00 1.384E+02 1.376E+02 
2.822E-03 7.669E-01 6.999E-02 1.401E+02 0.000E+00 0.000E+00 1.409E+02 1.401E+02 
3.000E-03 7.308E-01 7.472E-02 1.171E+02 0.000E+00 0.000E+00 1.179E+02 1.172E+02 
4.000E-03 5.623E-01 9.736E-02 4.971E+01 0.000E+00 0.000E+00 5.037E+01 4.980E+01 
4.038E-03 5.570E-01 9.809E-02 4.831E+01 0.000E+00 0.000E+00 4.896E+01 4.841E+01 
4.038E-03 5.570E-01 9.809E-02 8.457E+01 0.000E+00 0.000E+00 8.522E+01 8.467E+01 
5.000E-03 4.447E-01 1.138E-01 4.683E+01 0.000E+00 0.000E+00 4.739E+01 4.695E+01 
6.000E-03 3.625E-01 1.257E-01 2.787E+01 0.000E+00 0.000E+00 2.836E+01 2.799E+01 
8.000E-03 2.599E-01 1.416E-01 1.216E+01 0.000E+00 0.000E+00 1.256E+01 1.230E+01 
1.000E-02 1.999E-01 1.518E-01 6.321E+00 0.000E+00 0.000E+00 6.673E+00 6.473E+00 
1.500E-02 1.202E-01 1.669E-01 1.883E+00 0.000E+00 0.000E+00 2.170E+00 2.050E+00 
2.000E-02 7.989E-02 1.747E-01 7.854E-01 0.000E+00 0.000E+00 1.040E+00 9.601E-01 
3.000E-02 4.198E-02 1.799E-01 2.246E-01 0.000E+00 0.000E+00 4.465E-01 4.045E-01 
4.000E-02 2.577E-02 1.793E-01 9.137E-02 0.000E+00 0.000E+00 2.964E-01 2.707E-01 
5.000E-02 1.742E-02 1.767E-01 4.521E-02 0.000E+00 0.000E+00 2.393E-01 2.219E-01 
6.000E-02 1.255E-02 1.733E-01 2.537E-02 0.000E+00 0.000E+00 2.112E-01 1.986E-01 
8.000E-02 7.380E-03 1.660E-01 1.015E-02 0.000E+00 0.000E+00 1.835E-01 1.761E-01 
1.000E-01 4.838E-03 1.589E-01 4.984E-03 0.000E+00 0.000E+00 1.687E-01 1.639E-01 
1.500E-01 2.213E-03 1.439E-01 1.373E-03 0.000E+00 0.000E+00 1.475E-01 1.453E-01 
2.000E-01 1.260E-03 1.322E-01 5.561E-04 0.000E+00 0.000E+00 1.340E-01 1.327E-01 
3.000E-01 5.657E-04 1.152E-01 1.615E-04 0.000E+00 0.000E+00 1.159E-01 1.153E-01 
4.000E-01 3.195E-04 1.033E-01 7.023E-05 0.000E+00 0.000E+00 1.037E-01 1.033E-01 
5.000E-01 2.048E-04 9.435E-02 3.820E-05 0.000E+00 0.000E+00 9.459E-02 9.438E-02 
6.000E-01 1.424E-04 8.728E-02 2.391E-05 0.000E+00 0.000E+00 8.745E-02 8.731E-02 
8.000E-01 8.018E-05 7.669E-02 1.213E-05 0.000E+00 0.000E+00 7.678E-02 7.670E-02 
1.000E+00 5.134E-05 6.897E-02 7.538E-06 0.000E+00 0.000E+00 6.902E-02 6.897E-02 
1.022E+00 4.916E-05 6.825E-02 7.104E-06 0.000E+00 0.000E+00 6.831E-02 6.826E-02 
1.250E+00 3.287E-05 6.167E-02 4.813E-06 1.621E-05 0.000E+00 6.173E-02 6.169E-02 
1.500E+00 2.283E-05 5.606E-02 3.481E-06 8.929E-05 0.000E+00 5.618E-02 5.616E-02 
2.000E+00 1.284E-05 4.784E-02 2.166E-06 3.549E-04 0.000E+00 4.821E-02 4.819E-02 
2.044E+00 1.230E-05 4.724E-02 2.094E-06 3.825E-04 0.000E+00 4.764E-02 4.763E-02 
3.000E+00 5.709E-06 3.763E-02 1.192E-06 1.013E-03 1.317E-05 3.867E-02 3.866E-02 
4.000E+00 3.212E-06 3.139E-02 8.095E-07 1.642E-03 5.376E-05 3.309E-02 3.309E-02 
5.000E+00 2.055E-06 2.711E-02 6.099E-07 2.203E-03 1.071E-04 2.942E-02 2.942E-02 
6.000E+00 1.427E-06 2.396E-02 4.880E-07 2.706E-03 1.645E-04 2.684E-02 2.683E-02 
