Density

1.02

Photon    Coherent Incoher. Photoel. Nuclear  Electron Tot. w/  Tot. wo/ 
Energy    Scatter. Scatter. Absorb.  Pr. Prd. Pr. Prd. Coherent Coherent 

1.000E-03 1.068E+00 1.633E-02 2.269E+03 0.000E+00 0.000E+00 2.270E+03 2.269E+03 
1.500E-03 9.560E-01 3.238E-02 7.309E+02 0.000E+00 0.000E+00 7.319E+02 7.310E+02 
2.000E-03 8.362E-01 4.959E-02 3.188E+02 0.000E+00 0.000E+00 3.197E+02 3.189E+02 
2.822E-03 6.579E-01 7.576E-02 1.153E+02 0.000E+00 0.000E+00 1.161E+02 1.154E+02 
2.822E-03 6.579E-01 7.576E-02 1.285E+02 0.000E+00 0.000E+00 1.292E+02 1.286E+02 
3.000E-03 6.247E-01 8.080E-02 1.080E+02 0.000E+00 0.000E+00 1.087E+02 1.081E+02 
4.000E-03 4.729E-01 1.046E-01 4.601E+01 0.000E+00 0.000E+00 4.658E+01 4.611E+01 
5.000E-03 3.701E-01 1.215E-01 2.350E+01 0.000E+00 0.000E+00 2.399E+01 2.362E+01 
6.000E-03 2.999E-01 1.335E-01 1.349E+01 0.000E+00 0.000E+00 1.393E+01 1.363E+01 
8.000E-03 2.137E-01 1.493E-01 5.561E+00 0.000E+00 0.000E+00 5.924E+00 5.710E+00 
1.000E-02 1.637E-01 1.594E-01 2.773E+00 0.000E+00 0.000E+00 3.096E+00 2.932E+00 
1.500E-02 9.773E-02 1.741E-01 7.705E-01 0.000E+00 0.000E+00 1.042E+00 9.446E-01 
2.000E-02 6.463E-02 1.815E-01 3.069E-01 0.000E+00 0.000E+00 5.531E-01 4.884E-01 
3.000E-02 3.371E-02 1.860E-01 8.279E-02 0.000E+00 0.000E+00 3.025E-01 2.688E-01 
4.000E-02 2.054E-02 1.849E-01 3.242E-02 0.000E+00 0.000E+00 2.379E-01 2.173E-01 
5.000E-02 1.379E-02 1.819E-01 1.562E-02 0.000E+00 0.000E+00 2.113E-01 1.975E-01 
6.000E-02 9.887E-03 1.782E-01 8.586E-03 0.000E+00 0.000E+00 1.967E-01 1.868E-01 
8.000E-02 5.771E-03 1.705E-01 3.337E-03 0.000E+00 0.000E+00 1.796E-01 1.738E-01 
1.000E-01 3.766E-03 1.631E-01 1.604E-03 0.000E+00 0.000E+00 1.685E-01 1.647E-01 
1.500E-01 1.711E-03 1.476E-01 4.277E-04 0.000E+00 0.000E+00 1.497E-01 1.480E-01 
2.000E-01 9.703E-04 1.355E-01 1.698E-04 0.000E+00 0.000E+00 1.366E-01 1.357E-01 
3.000E-01 4.341E-04 1.180E-01 4.819E-05 0.000E+00 0.000E+00 1.185E-01 1.181E-01 
4.000E-01 2.447E-04 1.058E-01 2.070E-05 0.000E+00 0.000E+00 1.061E-01 1.058E-01 
5.000E-01 1.568E-04 9.666E-02 1.118E-05 0.000E+00 0.000E+00 9.683E-02 9.667E-02 
6.000E-01 1.090E-04 8.942E-02 6.967E-06 0.000E+00 0.000E+00 8.954E-02 8.943E-02 
8.000E-01 6.132E-05 7.856E-02 3.519E-06 0.000E+00 0.000E+00 7.863E-02 7.857E-02 
1.000E+00 3.926E-05 7.065E-02 2.188E-06 0.000E+00 0.000E+00 7.069E-02 7.065E-02 
1.022E+00 3.759E-05 6.992E-02 2.038E-06 0.000E+00 0.000E+00 6.996E-02 6.992E-02 
1.250E+00 2.513E-05 6.318E-02 1.383E-06 1.419E-05 0.000E+00 6.322E-02 6.319E-02 
1.500E+00 1.745E-05 5.743E-02 1.003E-06 7.868E-05 0.000E+00 5.753E-02 5.751E-02 
2.000E+00 9.818E-06 4.900E-02 6.295E-07 3.135E-04 0.000E+00 4.933E-02 4.932E-02 
2.044E+00 9.399E-06 4.840E-02 6.088E-07 3.379E-04 0.000E+00 4.875E-02 4.874E-02 
3.000E+00 4.364E-06 3.855E-02 3.507E-07 8.972E-04 1.349E-05 3.947E-02 3.946E-02 
4.000E+00 2.455E-06 3.216E-02 2.402E-07 1.456E-03 5.507E-05 3.367E-02 3.367E-02 
5.000E+00 1.571E-06 2.777E-02 1.819E-07 1.954E-03 1.097E-04 2.984E-02 2.984E-02 
6.000E+00 1.091E-06 2.455E-02 1.461E-07 2.402E-03 1.685E-04 2.712E-02 2.712E-02 
