Density

1.15

Photon    Coherent Incoher. Photoel. Nuclear  Electron Tot. w/  Tot. wo/ 
Energy    Scatter. Scatter. Absorb.  Pr. Prd. Pr. Prd. Coherent Coherent 

1.000E-03 1.118E+00 1.471E-02 2.559E+03 0.000E+00 0.000E+00 2.560E+03 2.559E+03 
1.500E-03 1.005E+00 2.927E-02 8.306E+02 0.000E+00 0.000E+00 8.316E+02 8.306E+02 
2.000E-03 8.836E-01 4.505E-02 3.640E+02 0.000E+00 0.000E+00 3.649E+02 3.640E+02 
2.822E-03 7.000E-01 6.943E-02 1.323E+02 0.000E+00 0.000E+00 1.331E+02 1.324E+02 
2.822E-03 7.000E-01 6.943E-02 1.348E+02 0.000E+00 0.000E+00 1.356E+02 1.349E+02 
3.000E-03 6.655E-01 7.418E-02 1.126E+02 0.000E+00 0.000E+00 1.133E+02 1.126E+02 
4.000E-03 5.057E-01 9.692E-02 4.746E+01 0.000E+00 0.000E+00 4.807E+01 4.756E+01 
5.000E-03 3.959E-01 1.135E-01 2.405E+01 0.000E+00 0.000E+00 2.456E+01 2.416E+01 
6.000E-03 3.201E-01 1.254E-01 1.371E+01 0.000E+00 0.000E+00 1.416E+01 1.384E+01 
8.000E-03 2.267E-01 1.413E-01 5.592E+00 0.000E+00 0.000E+00 5.960E+00 5.734E+00 
1.000E-02 1.728E-01 1.515E-01 2.766E+00 0.000E+00 0.000E+00 3.091E+00 2.918E+00 
1.500E-02 1.028E-01 1.666E-01 7.573E-01 0.000E+00 0.000E+00 1.027E+00 9.239E-01 
2.000E-02 6.806E-02 1.743E-01 2.986E-01 0.000E+00 0.000E+00 5.410E-01 4.729E-01 
3.000E-02 3.557E-02 1.794E-01 7.940E-02 0.000E+00 0.000E+00 2.944E-01 2.588E-01 
4.000E-02 2.167E-02 1.787E-01 3.080E-02 0.000E+00 0.000E+00 2.312E-01 2.095E-01 
5.000E-02 1.455E-02 1.760E-01 1.473E-02 0.000E+00 0.000E+00 2.053E-01 1.907E-01 
6.000E-02 1.043E-02 1.726E-01 8.054E-03 0.000E+00 0.000E+00 1.910E-01 1.806E-01 
8.000E-02 6.088E-03 1.652E-01 3.104E-03 0.000E+00 0.000E+00 1.744E-01 1.683E-01 
1.000E-01 3.973E-03 1.581E-01 1.483E-03 0.000E+00 0.000E+00 1.636E-01 1.596E-01 
1.500E-01 1.805E-03 1.431E-01 3.917E-04 0.000E+00 0.000E+00 1.453E-01 1.435E-01 
2.000E-01 1.023E-03 1.314E-01 1.546E-04 0.000E+00 0.000E+00 1.326E-01 1.316E-01 
3.000E-01 4.577E-04 1.145E-01 4.358E-05 0.000E+00 0.000E+00 1.150E-01 1.145E-01 
4.000E-01 2.580E-04 1.026E-01 1.865E-05 0.000E+00 0.000E+00 1.029E-01 1.027E-01 
5.000E-01 1.653E-04 9.377E-02 1.005E-05 0.000E+00 0.000E+00 9.395E-02 9.378E-02 
6.000E-01 1.149E-04 8.675E-02 6.255E-06 0.000E+00 0.000E+00 8.687E-02 8.675E-02 
8.000E-01 6.464E-05 7.622E-02 3.156E-06 0.000E+00 0.000E+00 7.628E-02 7.622E-02 
1.000E+00 4.138E-05 6.854E-02 1.962E-06 0.000E+00 0.000E+00 6.859E-02 6.854E-02 
1.022E+00 3.962E-05 6.783E-02 1.821E-06 0.000E+00 0.000E+00 6.787E-02 6.783E-02 
1.250E+00 2.649E-05 6.129E-02 1.236E-06 1.478E-05 0.000E+00 6.134E-02 6.131E-02 
1.500E+00 1.840E-05 5.572E-02 8.972E-07 8.196E-05 0.000E+00 5.582E-02 5.580E-02 
2.000E+00 1.035E-05 4.754E-02 5.649E-07 3.266E-04 0.000E+00 4.788E-02 4.787E-02 
2.044E+00 9.907E-06 4.695E-02 5.464E-07 3.521E-04 0.000E+00 4.732E-02 4.731E-02 
3.000E+00 4.600E-06 3.740E-02 3.159E-07 9.348E-04 1.309E-05 3.835E-02 3.835E-02 
4.000E+00 2.588E-06 3.120E-02 2.170E-07 1.517E-03 5.343E-05 3.277E-02 3.277E-02 
5.000E+00 1.656E-06 2.694E-02 1.646E-07 2.036E-03 1.065E-04 2.909E-02 2.909E-02 
6.000E+00 1.150E-06 2.381E-02 1.324E-07 2.503E-03 1.635E-04 2.648E-02 2.648E-02 
