Density

1.60

Photon    Coherent Incoher. Photoel. Nuclear  Electron Tot. w/  Tot. wo/ 
Energy    Scatter. Scatter. Absorb.  Pr. Prd. Pr. Prd. Coherent Coherent 

1.000E-03 1.645E+00 1.349E-02 3.287E+03 0.000E+00 0.000E+00 3.289E+03 3.287E+03 
1.142E-03 1.601E+00 1.676E-02 2.301E+03 0.000E+00 0.000E+00 2.303E+03 2.301E+03 
1.305E-03 1.554E+00 2.075E-02 1.609E+03 0.000E+00 0.000E+00 1.610E+03 1.609E+03 
1.500E-03 1.497E+00 2.574E-02 1.331E+03 0.000E+00 0.000E+00 1.332E+03 1.331E+03 
2.000E-03 1.344E+00 3.874E-02 6.050E+02 0.000E+00 0.000E+00 6.064E+02 6.051E+02 
2.822E-03 1.114E+00 5.912E-02 2.294E+02 0.000E+00 0.000E+00 2.306E+02 2.295E+02 
3.000E-03 1.070E+00 6.318E-02 1.935E+02 0.000E+00 0.000E+00 1.946E+02 1.936E+02 
4.000E-03 8.539E-01 8.318E-02 8.425E+01 0.000E+00 0.000E+00 8.518E+01 8.433E+01 
4.038E-03 8.467E-01 8.384E-02 8.195E+01 0.000E+00 0.000E+00 8.288E+01 8.204E+01 
5.000E-03 6.926E-01 9.857E-02 1.256E+02 0.000E+00 0.000E+00 1.263E+02 1.256E+02 
6.000E-03 5.738E-01 1.103E-01 7.625E+01 0.000E+00 0.000E+00 7.694E+01 7.637E+01 
8.000E-03 4.177E-01 1.266E-01 3.428E+01 0.000E+00 0.000E+00 3.482E+01 3.441E+01 
1.000E-02 3.232E-01 1.374E-01 1.817E+01 0.000E+00 0.000E+00 1.863E+01 1.831E+01 
1.500E-02 1.955E-01 1.535E-01 5.579E+00 0.000E+00 0.000E+00 5.928E+00 5.733E+00 
2.000E-02 1.304E-01 1.621E-01 2.370E+00 0.000E+00 0.000E+00 2.662E+00 2.532E+00 
3.000E-02 6.942E-02 1.689E-01 6.923E-01 0.000E+00 0.000E+00 9.306E-01 8.612E-01 
4.000E-02 4.315E-02 1.696E-01 2.852E-01 0.000E+00 0.000E+00 4.979E-01 4.547E-01 
5.000E-02 2.948E-02 1.678E-01 1.423E-01 0.000E+00 0.000E+00 3.396E-01 3.101E-01 
6.000E-02 2.141E-02 1.651E-01 8.037E-02 0.000E+00 0.000E+00 2.669E-01 2.455E-01 
8.000E-02 1.272E-02 1.588E-01 3.244E-02 0.000E+00 0.000E+00 2.040E-01 1.913E-01 
1.000E-01 8.400E-03 1.524E-01 1.602E-02 0.000E+00 0.000E+00 1.769E-01 1.685E-01 
1.500E-01 3.882E-03 1.384E-01 4.451E-03 0.000E+00 0.000E+00 1.468E-01 1.429E-01 
2.000E-01 2.223E-03 1.273E-01 1.812E-03 0.000E+00 0.000E+00 1.313E-01 1.291E-01 
3.000E-01 1.003E-03 1.110E-01 5.291E-04 0.000E+00 0.000E+00 1.126E-01 1.116E-01 
4.000E-01 5.680E-04 9.960E-02 2.308E-04 0.000E+00 0.000E+00 1.004E-01 9.983E-02 
5.000E-01 3.646E-04 9.102E-02 1.258E-04 0.000E+00 0.000E+00 9.151E-02 9.114E-02 
6.000E-01 2.536E-04 8.422E-02 7.881E-05 0.000E+00 0.000E+00 8.455E-02 8.430E-02 
8.000E-01 1.429E-04 7.401E-02 3.999E-05 0.000E+00 0.000E+00 7.419E-02 7.405E-02 
1.000E+00 9.153E-05 6.656E-02 2.486E-05 0.000E+00 0.000E+00 6.668E-02 6.659E-02 
1.022E+00 8.765E-05 6.587E-02 2.350E-05 0.000E+00 0.000E+00 6.598E-02 6.589E-02 
1.250E+00 5.861E-05 5.953E-02 1.592E-05 2.266E-05 0.000E+00 5.962E-02 5.956E-02 
1.500E+00 4.071E-05 5.411E-02 1.151E-05 1.231E-04 0.000E+00 5.428E-02 5.424E-02 
2.000E+00 2.291E-05 4.617E-02 7.144E-06 4.866E-04 0.000E+00 4.669E-02 4.667E-02 
2.044E+00 2.193E-05 4.560E-02 6.905E-06 5.244E-04 0.000E+00 4.615E-02 4.613E-02 
3.000E+00 1.018E-05 3.633E-02 3.919E-06 1.382E-03 1.271E-05 3.773E-02 3.772E-02 
4.000E+00 5.730E-06 3.030E-02 2.657E-06 2.235E-03 5.189E-05 3.260E-02 3.259E-02 
5.000E+00 3.666E-06 2.617E-02 1.999E-06 2.993E-03 1.034E-04 2.927E-02 2.927E-02 
6.000E+00 2.546E-06 2.313E-02 1.598E-06 3.673E-03 1.588E-04 2.697E-02 2.696E-02 
