Density

1.062

Photon    Coherent Incoher. Photoel. Nuclear  Electron Tot. w/  Tot. wo/ 
Energy    Scatter. Scatter. Absorb.  Pr. Prd. Pr. Prd. Coherent Coherent 

1.000E-03 1.145E+00 1.538E-02 2.491E+03 0.000E+00 0.000E+00 2.492E+03 2.491E+03 
1.500E-03 1.028E+00 3.042E-02 8.089E+02 0.000E+00 0.000E+00 8.100E+02 8.090E+02 
2.000E-03 9.042E-01 4.661E-02 3.549E+02 0.000E+00 0.000E+00 3.558E+02 3.549E+02 
2.822E-03 7.183E-01 7.146E-02 1.292E+02 0.000E+00 0.000E+00 1.300E+02 1.293E+02 
3.000E-03 6.835E-01 7.628E-02 1.091E+02 0.000E+00 0.000E+00 1.099E+02 1.092E+02 
4.000E-03 5.222E-01 9.923E-02 4.608E+01 0.000E+00 0.000E+00 4.670E+01 4.618E+01 
4.038E-03 5.171E-01 9.997E-02 4.478E+01 0.000E+00 0.000E+00 4.540E+01 4.488E+01 
5.000E-03 4.110E-01 1.158E-01 3.519E+01 0.000E+00 0.000E+00 3.572E+01 3.530E+01 
6.000E-03 3.339E-01 1.278E-01 2.068E+01 0.000E+00 0.000E+00 2.115E+01 2.081E+01 
8.000E-03 2.385E-01 1.436E-01 8.862E+00 0.000E+00 0.000E+00 9.244E+00 9.005E+00 
1.000E-02 1.830E-01 1.537E-01 4.546E+00 0.000E+00 0.000E+00 4.883E+00 4.700E+00 
1.500E-02 1.097E-01 1.687E-01 1.326E+00 0.000E+00 0.000E+00 1.605E+00 1.495E+00 
2.000E-02 7.276E-02 1.764E-01 5.459E-01 0.000E+00 0.000E+00 7.951E-01 7.223E-01 
3.000E-02 3.812E-02 1.814E-01 1.536E-01 0.000E+00 0.000E+00 3.731E-01 3.350E-01 
4.000E-02 2.332E-02 1.806E-01 6.187E-02 0.000E+00 0.000E+00 2.658E-01 2.425E-01 
5.000E-02 1.572E-02 1.779E-01 3.041E-02 0.000E+00 0.000E+00 2.240E-01 2.083E-01 
6.000E-02 1.130E-02 1.744E-01 1.698E-02 0.000E+00 0.000E+00 2.026E-01 1.913E-01 
8.000E-02 6.621E-03 1.669E-01 6.745E-03 0.000E+00 0.000E+00 1.803E-01 1.737E-01 
1.000E-01 4.332E-03 1.598E-01 3.294E-03 0.000E+00 0.000E+00 1.674E-01 1.631E-01 
1.500E-01 1.975E-03 1.446E-01 9.006E-04 0.000E+00 0.000E+00 1.475E-01 1.455E-01 
2.000E-01 1.123E-03 1.328E-01 3.631E-04 0.000E+00 0.000E+00 1.343E-01 1.332E-01 
3.000E-01 5.032E-04 1.157E-01 1.049E-04 0.000E+00 0.000E+00 1.163E-01 1.158E-01 
4.000E-01 2.840E-04 1.038E-01 4.550E-05 0.000E+00 0.000E+00 1.041E-01 1.038E-01 
5.000E-01 1.820E-04 9.480E-02 2.471E-05 0.000E+00 0.000E+00 9.500E-02 9.482E-02 
6.000E-01 1.265E-04 8.770E-02 1.546E-05 0.000E+00 0.000E+00 8.784E-02 8.771E-02 
8.000E-01 7.122E-05 7.705E-02 7.831E-06 0.000E+00 0.000E+00 7.713E-02 7.706E-02 
1.000E+00 4.560E-05 6.929E-02 4.868E-06 0.000E+00 0.000E+00 6.934E-02 6.930E-02 
1.022E+00 4.366E-05 6.857E-02 4.575E-06 0.000E+00 0.000E+00 6.862E-02 6.858E-02 
1.250E+00 2.919E-05 6.196E-02 3.101E-06 1.529E-05 0.000E+00 6.201E-02 6.198E-02 
1.500E+00 2.027E-05 5.633E-02 2.244E-06 8.451E-05 0.000E+00 5.644E-02 5.642E-02 
2.000E+00 1.141E-05 4.806E-02 1.399E-06 3.363E-04 0.000E+00 4.841E-02 4.840E-02 
2.044E+00 1.092E-05 4.747E-02 1.352E-06 3.625E-04 0.000E+00 4.784E-02 4.783E-02 
3.000E+00 5.070E-06 3.781E-02 7.718E-07 9.612E-04 1.323E-05 3.879E-02 3.879E-02 
4.000E+00 2.852E-06 3.154E-02 5.253E-07 1.559E-03 5.401E-05 3.316E-02 3.315E-02 
5.000E+00 1.825E-06 2.724E-02 3.962E-07 2.092E-03 1.076E-04 2.944E-02 2.944E-02 
6.000E+00 1.268E-06 2.408E-02 3.173E-07 2.570E-03 1.653E-04 2.681E-02 2.681E-02 
