Density

0.967

Photon    Coherent Incoher. Photoel. Nuclear  Electron Tot. w/  Tot. wo/ 
Energy    Scatter. Scatter. Absorb.  Pr. Prd. Pr. Prd. Coherent Coherent 

1.000E-03 1.090E+00 1.569E-02 2.408E+03 0.000E+00 0.000E+00 2.410E+03 2.408E+03 
1.500E-03 9.781E-01 3.114E-02 7.792E+02 0.000E+00 0.000E+00 7.802E+02 7.792E+02 
2.000E-03 8.577E-01 4.778E-02 3.408E+02 0.000E+00 0.000E+00 3.417E+02 3.408E+02 
2.822E-03 6.774E-01 7.324E-02 1.236E+02 0.000E+00 0.000E+00 1.244E+02 1.237E+02 
3.000E-03 6.436E-01 7.816E-02 1.057E+02 0.000E+00 0.000E+00 1.064E+02 1.058E+02 
4.000E-03 4.883E-01 1.015E-01 4.455E+01 0.000E+00 0.000E+00 4.514E+01 4.466E+01 
4.038E-03 4.835E-01 1.023E-01 4.329E+01 0.000E+00 0.000E+00 4.388E+01 4.339E+01 
5.000E-03 3.822E-01 1.183E-01 2.418E+01 0.000E+00 0.000E+00 2.468E+01 2.430E+01 
6.000E-03 3.094E-01 1.304E-01 1.387E+01 0.000E+00 0.000E+00 1.431E+01 1.400E+01 
8.000E-03 2.197E-01 1.462E-01 5.712E+00 0.000E+00 0.000E+00 6.078E+00 5.859E+00 
1.000E-02 1.679E-01 1.564E-01 2.847E+00 0.000E+00 0.000E+00 3.171E+00 3.003E+00 
1.500E-02 1.001E-01 1.712E-01 7.904E-01 0.000E+00 0.000E+00 1.062E+00 9.616E-01 
2.000E-02 6.626E-02 1.787E-01 3.148E-01 0.000E+00 0.000E+00 5.598E-01 4.935E-01 
3.000E-02 3.459E-02 1.835E-01 8.486E-02 0.000E+00 0.000E+00 3.029E-01 2.683E-01 
4.000E-02 2.108E-02 1.826E-01 3.323E-02 0.000E+00 0.000E+00 2.369E-01 2.158E-01 
5.000E-02 1.416E-02 1.797E-01 1.601E-02 0.000E+00 0.000E+00 2.098E-01 1.957E-01 
6.000E-02 1.015E-02 1.761E-01 8.800E-03 0.000E+00 0.000E+00 1.950E-01 1.849E-01 
8.000E-02 5.926E-03 1.685E-01 3.420E-03 0.000E+00 0.000E+00 1.778E-01 1.719E-01 
1.000E-01 3.868E-03 1.612E-01 1.644E-03 0.000E+00 0.000E+00 1.667E-01 1.629E-01 
1.500E-01 1.757E-03 1.459E-01 4.385E-04 0.000E+00 0.000E+00 1.481E-01 1.463E-01 
2.000E-01 9.966E-04 1.339E-01 1.741E-04 0.000E+00 0.000E+00 1.351E-01 1.341E-01 
3.000E-01 4.459E-04 1.167E-01 4.945E-05 0.000E+00 0.000E+00 1.172E-01 1.167E-01 
4.000E-01 2.514E-04 1.046E-01 2.124E-05 0.000E+00 0.000E+00 1.049E-01 1.046E-01 
5.000E-01 1.611E-04 9.557E-02 1.147E-05 0.000E+00 0.000E+00 9.575E-02 9.558E-02 
6.000E-01 1.119E-04 8.841E-02 7.153E-06 0.000E+00 0.000E+00 8.853E-02 8.842E-02 
8.000E-01 6.298E-05 7.768E-02 3.614E-06 0.000E+00 0.000E+00 7.774E-02 7.768E-02 
1.000E+00 4.032E-05 6.986E-02 2.247E-06 0.000E+00 0.000E+00 6.990E-02 6.986E-02 
1.022E+00 3.861E-05 6.913E-02 2.093E-06 0.000E+00 0.000E+00 6.917E-02 6.914E-02 
1.250E+00 2.581E-05 6.247E-02 1.420E-06 1.446E-05 0.000E+00 6.251E-02 6.248E-02 
1.500E+00 1.793E-05 5.679E-02 1.030E-06 8.018E-05 0.000E+00 5.689E-02 5.687E-02 
2.000E+00 1.008E-05 4.845E-02 6.462E-07 3.195E-04 0.000E+00 4.878E-02 4.877E-02 
2.044E+00 9.653E-06 4.785E-02 6.250E-07 3.444E-04 0.000E+00 4.821E-02 4.820E-02 
3.000E+00 4.482E-06 3.812E-02 3.599E-07 9.143E-04 1.334E-05 3.905E-02 3.905E-02 
4.000E+00 2.521E-06 3.180E-02 2.465E-07 1.484E-03 5.445E-05 3.334E-02 3.333E-02 
5.000E+00 1.614E-06 2.746E-02 1.867E-07 1.991E-03 1.085E-04 2.956E-02 2.956E-02 
6.000E+00 1.121E-06 2.427E-02 1.499E-07 2.448E-03 1.666E-04 2.689E-02 2.689E-02 
