Density

0.21

Photon    Coherent Incoher. Photoel. Nuclear  Electron Tot. w/  Tot. wo/ 
Energy    Scatter. Scatter. Absorb.  Pr. Prd. Pr. Prd. Coherent Coherent 

1.000E-03 1.172E+00 1.491E-02 2.523E+03 0.000E+00 0.000E+00 2.524E+03 2.523E+03 
1.500E-03 1.055E+00 2.956E-02 8.208E+02 0.000E+00 0.000E+00 8.219E+02 8.208E+02 
1.560E-03 1.041E+00 3.143E-02 7.353E+02 0.000E+00 0.000E+00 7.363E+02 7.353E+02 
2.000E-03 9.304E-01 4.535E-02 4.167E+02 0.000E+00 0.000E+00 4.177E+02 4.168E+02 
2.822E-03 7.421E-01 6.963E-02 1.546E+02 0.000E+00 0.000E+00 1.554E+02 1.547E+02 
3.000E-03 7.067E-01 7.435E-02 1.498E+02 0.000E+00 0.000E+00 1.506E+02 1.499E+02 
4.000E-03 5.425E-01 9.691E-02 6.506E+01 0.000E+00 0.000E+00 6.569E+01 6.515E+01 
5.000E-03 4.286E-01 1.133E-01 3.370E+01 0.000E+00 0.000E+00 3.425E+01 3.382E+01 
6.000E-03 3.492E-01 1.253E-01 1.956E+01 0.000E+00 0.000E+00 2.004E+01 1.969E+01 
8.000E-03 2.493E-01 1.412E-01 8.194E+00 0.000E+00 0.000E+00 8.585E+00 8.335E+00 
1.000E-02 1.904E-01 1.515E-01 4.135E+00 0.000E+00 0.000E+00 4.476E+00 4.286E+00 
1.500E-02 1.129E-01 1.666E-01 1.172E+00 0.000E+00 0.000E+00 1.451E+00 1.338E+00 
2.000E-02 7.466E-02 1.744E-01 4.727E-01 0.000E+00 0.000E+00 7.218E-01 6.471E-01 
3.000E-02 3.915E-02 1.796E-01 1.295E-01 0.000E+00 0.000E+00 3.483E-01 3.091E-01 
4.000E-02 2.395E-02 1.790E-01 5.123E-02 0.000E+00 0.000E+00 2.542E-01 2.302E-01 
5.000E-02 1.613E-02 1.763E-01 2.485E-02 0.000E+00 0.000E+00 2.173E-01 2.012E-01 
6.000E-02 1.158E-02 1.729E-01 1.373E-02 0.000E+00 0.000E+00 1.982E-01 1.867E-01 
8.000E-02 6.780E-03 1.656E-01 5.376E-03 0.000E+00 0.000E+00 1.778E-01 1.710E-01 
1.000E-01 4.433E-03 1.586E-01 2.597E-03 0.000E+00 0.000E+00 1.656E-01 1.612E-01 
1.500E-01 2.020E-03 1.436E-01 6.978E-04 0.000E+00 0.000E+00 1.463E-01 1.443E-01 
2.000E-01 1.148E-03 1.318E-01 2.783E-04 0.000E+00 0.000E+00 1.333E-01 1.321E-01 
3.000E-01 5.141E-04 1.149E-01 7.939E-05 0.000E+00 0.000E+00 1.155E-01 1.149E-01 
4.000E-01 2.900E-04 1.030E-01 3.418E-05 0.000E+00 0.000E+00 1.033E-01 1.030E-01 
5.000E-01 1.858E-04 9.410E-02 1.849E-05 0.000E+00 0.000E+00 9.430E-02 9.412E-02 
6.000E-01 1.292E-04 8.705E-02 1.154E-05 0.000E+00 0.000E+00 8.719E-02 8.707E-02 
8.000E-01 7.270E-05 7.649E-02 5.833E-06 0.000E+00 0.000E+00 7.657E-02 7.649E-02 
1.000E+00 4.654E-05 6.879E-02 3.627E-06 0.000E+00 0.000E+00 6.884E-02 6.879E-02 
1.022E+00 4.456E-05 6.807E-02 3.394E-06 0.000E+00 0.000E+00 6.812E-02 6.808E-02 
1.250E+00 2.980E-05 6.151E-02 2.302E-06 1.556E-05 0.000E+00 6.156E-02 6.153E-02 
1.500E+00 2.069E-05 5.592E-02 1.668E-06 8.612E-05 0.000E+00 5.602E-02 5.600E-02 
2.000E+00 1.164E-05 4.771E-02 1.045E-06 3.428E-04 0.000E+00 4.807E-02 4.805E-02 
2.044E+00 1.114E-05 4.712E-02 1.010E-06 3.695E-04 0.000E+00 4.750E-02 4.749E-02 
3.000E+00 5.174E-06 3.753E-02 5.802E-07 9.802E-04 1.313E-05 3.853E-02 3.853E-02 
4.000E+00 2.911E-06 3.131E-02 3.968E-07 1.590E-03 5.362E-05 3.296E-02 3.295E-02 
5.000E+00 1.863E-06 2.704E-02 3.001E-07 2.133E-03 1.069E-04 2.928E-02 2.928E-02 
6.000E+00 1.294E-06 2.390E-02 2.408E-07 2.622E-03 1.641E-04 2.669E-02 2.669E-02 
