Density

1.039

Photon    Coherent Incoher. Photoel. Nuclear  Electron Tot. w/  Tot. wo/ 
Energy    Scatter. Scatter. Absorb.  Pr. Prd. Pr. Prd. Coherent Coherent 

1.000E-03 1.258E+00 1.430E-02 2.738E+03 0.000E+00 0.000E+00 2.739E+03 2.738E+03 
1.142E-03 1.224E+00 1.796E-02 1.906E+03 0.000E+00 0.000E+00 1.907E+03 1.906E+03 
1.305E-03 1.187E+00 2.246E-02 1.324E+03 0.000E+00 0.000E+00 1.325E+03 1.324E+03 
1.500E-03 1.141E+00 2.812E-02 1.155E+03 0.000E+00 0.000E+00 1.156E+03 1.155E+03 
1.560E-03 1.126E+00 2.988E-02 1.039E+03 0.000E+00 0.000E+00 1.041E+03 1.039E+03 
2.000E-03 1.014E+00 4.294E-02 5.502E+02 0.000E+00 0.000E+00 5.513E+02 5.503E+02 
2.822E-03 8.226E-01 6.584E-02 2.076E+02 0.000E+00 0.000E+00 2.085E+02 2.077E+02 
3.000E-03 7.860E-01 7.034E-02 1.774E+02 0.000E+00 0.000E+00 1.782E+02 1.775E+02 
4.000E-03 6.128E-01 9.207E-02 7.682E+01 0.000E+00 0.000E+00 7.753E+01 7.692E+01 
5.000E-03 4.883E-01 1.083E-01 3.968E+01 0.000E+00 0.000E+00 4.027E+01 3.979E+01 
6.000E-03 3.988E-01 1.203E-01 2.296E+01 0.000E+00 0.000E+00 2.348E+01 2.308E+01 
8.000E-03 2.831E-01 1.367E-01 9.575E+00 0.000E+00 0.000E+00 9.995E+00 9.712E+00 
1.000E-02 2.142E-01 1.474E-01 4.815E+00 0.000E+00 0.000E+00 5.176E+00 4.962E+00 
1.500E-02 1.253E-01 1.630E-01 1.354E+00 0.000E+00 0.000E+00 1.643E+00 1.517E+00 
2.000E-02 8.276E-02 1.709E-01 5.438E-01 0.000E+00 0.000E+00 7.974E-01 7.147E-01 
3.000E-02 4.358E-02 1.765E-01 1.479E-01 0.000E+00 0.000E+00 3.679E-01 3.244E-01 
4.000E-02 2.671E-02 1.763E-01 5.819E-02 0.000E+00 0.000E+00 2.612E-01 2.344E-01 
5.000E-02 1.799E-02 1.739E-01 2.812E-02 0.000E+00 0.000E+00 2.200E-01 2.020E-01 
6.000E-02 1.292E-02 1.706E-01 1.549E-02 0.000E+00 0.000E+00 1.991E-01 1.861E-01 
8.000E-02 7.572E-03 1.636E-01 6.033E-03 0.000E+00 0.000E+00 1.772E-01 1.696E-01 
1.000E-01 4.957E-03 1.567E-01 2.904E-03 0.000E+00 0.000E+00 1.645E-01 1.596E-01 
1.500E-01 2.262E-03 1.419E-01 7.754E-04 0.000E+00 0.000E+00 1.450E-01 1.427E-01 
2.000E-01 1.285E-03 1.304E-01 3.081E-04 0.000E+00 0.000E+00 1.320E-01 1.307E-01 
3.000E-01 5.759E-04 1.136E-01 8.751E-05 0.000E+00 0.000E+00 1.143E-01 1.137E-01 
4.000E-01 3.249E-04 1.019E-01 3.759E-05 0.000E+00 0.000E+00 1.022E-01 1.019E-01 
5.000E-01 2.082E-04 9.308E-02 2.031E-05 0.000E+00 0.000E+00 9.331E-02 9.310E-02 
6.000E-01 1.447E-04 8.611E-02 1.267E-05 0.000E+00 0.000E+00 8.627E-02 8.612E-02 
8.000E-01 8.146E-05 7.566E-02 6.397E-06 0.000E+00 0.000E+00 7.575E-02 7.567E-02 
1.000E+00 5.215E-05 6.805E-02 3.977E-06 0.000E+00 0.000E+00 6.810E-02 6.805E-02 
1.022E+00 4.994E-05 6.734E-02 3.718E-06 0.000E+00 0.000E+00 6.739E-02 6.734E-02 
1.250E+00 3.339E-05 6.085E-02 2.523E-06 1.665E-05 0.000E+00 6.090E-02 6.087E-02 
1.500E+00 2.319E-05 5.531E-02 1.829E-06 9.210E-05 0.000E+00 5.543E-02 5.541E-02 
2.000E+00 1.304E-05 4.720E-02 1.148E-06 3.666E-04 0.000E+00 4.758E-02 4.757E-02 
2.044E+00 1.249E-05 4.661E-02 1.110E-06 3.951E-04 0.000E+00 4.702E-02 4.701E-02 
3.000E+00 5.798E-06 3.713E-02 6.389E-07 1.048E-03 1.299E-05 3.820E-02 3.819E-02 
4.000E+00 3.262E-06 3.097E-02 4.375E-07 1.700E-03 5.304E-05 3.273E-02 3.273E-02 
5.000E+00 2.087E-06 2.675E-02 3.312E-07 2.280E-03 1.057E-04 2.914E-02 2.913E-02 
6.000E+00 1.449E-06 2.364E-02 2.660E-07 2.802E-03 1.623E-04 2.661E-02 2.661E-02 
