Density

1.12

Photon    Coherent Incoher. Photoel. Nuclear  Electron Tot. w/  Tot. wo/ 
Energy    Scatter. Scatter. Absorb.  Pr. Prd. Pr. Prd. Coherent Coherent 

1.000E-03 1.308E+00 1.349E-02 3.544E+03 0.000E+00 0.000E+00 3.545E+03 3.544E+03 
1.035E-03 1.300E+00 1.434E-02 3.229E+03 0.000E+00 0.000E+00 3.230E+03 3.229E+03 
1.072E-03 1.292E+00 1.525E-02 2.941E+03 0.000E+00 0.000E+00 2.942E+03 2.941E+03 
1.072E-03 1.292E+00 1.525E-02 2.976E+03 0.000E+00 0.000E+00 2.978E+03 2.977E+03 
1.500E-03 1.200E+00 2.713E-02 1.202E+03 0.000E+00 0.000E+00 1.203E+03 1.202E+03 
2.000E-03 1.078E+00 4.220E-02 5.363E+02 0.000E+00 0.000E+00 5.374E+02 5.363E+02 
2.472E-03 9.619E-01 5.620E-02 2.920E+02 0.000E+00 0.000E+00 2.930E+02 2.921E+02 
2.472E-03 9.619E-01 5.620E-02 3.031E+02 0.000E+00 0.000E+00 3.042E+02 3.032E+02 
2.641E-03 9.220E-01 6.103E-02 2.506E+02 0.000E+00 0.000E+00 2.516E+02 2.507E+02 
2.822E-03 8.807E-01 6.602E-02 2.070E+02 0.000E+00 0.000E+00 2.080E+02 2.071E+02 
2.822E-03 8.807E-01 6.602E-02 2.114E+02 0.000E+00 0.000E+00 2.123E+02 2.114E+02 
3.000E-03 8.416E-01 7.074E-02 1.774E+02 0.000E+00 0.000E+00 1.783E+02 1.774E+02 
4.000E-03 6.526E-01 9.372E-02 7.615E+01 0.000E+00 0.000E+00 7.689E+01 7.624E+01 
5.000E-03 5.142E-01 1.111E-01 3.910E+01 0.000E+00 0.000E+00 3.972E+01 3.921E+01 
6.000E-03 4.151E-01 1.240E-01 2.252E+01 0.000E+00 0.000E+00 2.306E+01 2.264E+01 
8.000E-03 2.897E-01 1.412E-01 9.327E+00 0.000E+00 0.000E+00 9.758E+00 9.469E+00 
1.000E-02 2.172E-01 1.520E-01 4.667E+00 0.000E+00 0.000E+00 5.037E+00 4.819E+00 
1.500E-02 1.267E-01 1.670E-01 1.302E+00 0.000E+00 0.000E+00 1.596E+00 1.469E+00 
2.000E-02 8.407E-02 1.747E-01 5.198E-01 0.000E+00 0.000E+00 7.786E-01 6.945E-01 
3.000E-02 4.441E-02 1.802E-01 1.403E-01 0.000E+00 0.000E+00 3.649E-01 3.205E-01 
4.000E-02 2.718E-02 1.800E-01 5.496E-02 0.000E+00 0.000E+00 2.621E-01 2.349E-01 
5.000E-02 1.831E-02 1.775E-01 2.646E-02 0.000E+00 0.000E+00 2.223E-01 2.040E-01 
6.000E-02 1.316E-02 1.743E-01 1.454E-02 0.000E+00 0.000E+00 2.020E-01 1.888E-01 
8.000E-02 7.714E-03 1.670E-01 5.645E-03 0.000E+00 0.000E+00 1.804E-01 1.727E-01 
1.000E-01 5.051E-03 1.600E-01 2.711E-03 0.000E+00 0.000E+00 1.678E-01 1.627E-01 
1.500E-01 2.304E-03 1.450E-01 7.211E-04 0.000E+00 0.000E+00 1.480E-01 1.457E-01 
2.000E-01 1.309E-03 1.331E-01 2.859E-04 0.000E+00 0.000E+00 1.347E-01 1.334E-01 
3.000E-01 5.864E-04 1.160E-01 8.107E-05 0.000E+00 0.000E+00 1.167E-01 1.161E-01 
4.000E-01 3.308E-04 1.040E-01 3.478E-05 0.000E+00 0.000E+00 1.044E-01 1.041E-01 
5.000E-01 2.120E-04 9.504E-02 1.877E-05 0.000E+00 0.000E+00 9.528E-02 9.506E-02 
6.000E-01 1.473E-04 8.793E-02 1.170E-05 0.000E+00 0.000E+00 8.809E-02 8.794E-02 
8.000E-01 8.293E-05 7.727E-02 5.909E-06 0.000E+00 0.000E+00 7.736E-02 7.728E-02 
1.000E+00 5.309E-05 6.949E-02 3.673E-06 0.000E+00 0.000E+00 6.955E-02 6.950E-02 
1.022E+00 5.084E-05 6.876E-02 3.428E-06 0.000E+00 0.000E+00 6.882E-02 6.877E-02 
1.250E+00 3.399E-05 6.214E-02 2.327E-06 1.707E-05 0.000E+00 6.219E-02 6.216E-02 
1.500E+00 2.360E-05 5.648E-02 1.687E-06 9.439E-05 0.000E+00 5.660E-02 5.657E-02 
2.000E+00 1.328E-05 4.820E-02 1.060E-06 3.757E-04 0.000E+00 4.859E-02 4.858E-02 
2.044E+00 1.271E-05 4.760E-02 1.025E-06 4.049E-04 0.000E+00 4.801E-02 4.800E-02 
3.000E+00 5.902E-06 3.792E-02 5.908E-07 1.074E-03 1.327E-05 3.901E-02 3.900E-02 
4.000E+00 3.320E-06 3.163E-02 4.049E-07 1.742E-03 5.416E-05 3.343E-02 3.343E-02 
5.000E+00 2.125E-06 2.731E-02 3.067E-07 2.337E-03 1.079E-04 2.976E-02 2.976E-02 
6.000E+00 1.475E-06 2.414E-02 2.464E-07 2.872E-03 1.658E-04 2.718E-02 2.718E-02 
