Density

1.92

Photon    Coherent Incoher. Photoel. Nuclear  Electron Tot. w/  Tot. wo/ 
Energy    Scatter. Scatter. Absorb.  Pr. Prd. Pr. Prd. Coherent Coherent 

1.000E-03 1.981E+00 1.242E-02 3.778E+03 0.000E+00 0.000E+00 3.780E+03 3.778E+03 
1.035E-03 1.968E+00 1.313E-02 3.445E+03 0.000E+00 0.000E+00 3.447E+03 3.445E+03 
1.072E-03 1.955E+00 1.388E-02 3.142E+03 0.000E+00 0.000E+00 3.144E+03 3.142E+03 
1.072E-03 1.955E+00 1.388E-02 3.148E+03 0.000E+00 0.000E+00 3.150E+03 3.148E+03 
1.183E-03 1.916E+00 1.624E-02 2.426E+03 0.000E+00 0.000E+00 2.428E+03 2.426E+03 
1.305E-03 1.875E+00 1.895E-02 1.867E+03 0.000E+00 0.000E+00 1.869E+03 1.867E+03 
1.305E-03 1.875E+00 1.895E-02 1.877E+03 0.000E+00 0.000E+00 1.879E+03 1.877E+03 
1.500E-03 1.809E+00 2.344E-02 1.293E+03 0.000E+00 0.000E+00 1.294E+03 1.293E+03 
2.000E-03 1.633E+00 3.514E-02 5.852E+02 0.000E+00 0.000E+00 5.869E+02 5.852E+02 
2.145E-03 1.583E+00 3.854E-02 4.806E+02 0.000E+00 0.000E+00 4.822E+02 4.806E+02 
2.145E-03 1.583E+00 3.854E-02 7.096E+02 0.000E+00 0.000E+00 7.113E+02 7.097E+02 
2.303E-03 1.530E+00 4.218E-02 5.890E+02 0.000E+00 0.000E+00 5.905E+02 5.890E+02 
2.472E-03 1.474E+00 4.603E-02 4.885E+02 0.000E+00 0.000E+00 4.900E+02 4.885E+02 
2.472E-03 1.474E+00 4.603E-02 4.941E+02 0.000E+00 0.000E+00 4.956E+02 4.941E+02 
3.000E-03 1.314E+00 5.747E-02 2.944E+02 0.000E+00 0.000E+00 2.958E+02 2.944E+02 
4.000E-03 1.061E+00 7.611E-02 1.320E+02 0.000E+00 0.000E+00 1.331E+02 1.320E+02 
4.038E-03 1.052E+00 7.674E-02 1.285E+02 0.000E+00 0.000E+00 1.296E+02 1.286E+02 
4.038E-03 1.052E+00 7.674E-02 3.320E+02 0.000E+00 0.000E+00 3.332E+02 3.321E+02 
5.000E-03 8.691E-01 9.080E-02 1.907E+02 0.000E+00 0.000E+00 1.917E+02 1.908E+02 
6.000E-03 7.266E-01 1.022E-01 1.163E+02 0.000E+00 0.000E+00 1.171E+02 1.164E+02 
8.000E-03 5.366E-01 1.184E-01 5.258E+01 0.000E+00 0.000E+00 5.323E+01 5.269E+01 
1.000E-02 4.185E-01 1.293E-01 2.797E+01 0.000E+00 0.000E+00 2.852E+01 2.810E+01 
1.500E-02 2.544E-01 1.459E-01 8.632E+00 0.000E+00 0.000E+00 9.032E+00 8.778E+00 
2.000E-02 1.698E-01 1.551E-01 3.676E+00 0.000E+00 0.000E+00 4.001E+00 3.831E+00 
3.000E-02 9.079E-02 1.629E-01 1.077E+00 0.000E+00 0.000E+00 1.331E+00 1.240E+00 
4.000E-02 5.676E-02 1.643E-01 4.445E-01 0.000E+00 0.000E+00 6.656E-01 6.088E-01 
5.000E-02 3.895E-02 1.632E-01 2.221E-01 0.000E+00 0.000E+00 4.242E-01 3.853E-01 
6.000E-02 2.838E-02 1.609E-01 1.255E-01 0.000E+00 0.000E+00 3.148E-01 2.864E-01 
8.000E-02 1.693E-02 1.552E-01 5.072E-02 0.000E+00 0.000E+00 2.229E-01 2.060E-01 
1.000E-01 1.121E-02 1.493E-01 2.506E-02 0.000E+00 0.000E+00 1.855E-01 1.743E-01 
1.500E-01 5.201E-03 1.359E-01 6.969E-03 0.000E+00 0.000E+00 1.480E-01 1.428E-01 
2.000E-01 2.985E-03 1.251E-01 2.838E-03 0.000E+00 0.000E+00 1.309E-01 1.279E-01 
3.000E-01 1.350E-03 1.092E-01 8.292E-04 0.000E+00 0.000E+00 1.113E-01 1.100E-01 
4.000E-01 7.650E-04 9.796E-02 3.618E-04 0.000E+00 0.000E+00 9.908E-02 9.832E-02 
5.000E-01 4.912E-04 8.953E-02 1.971E-04 0.000E+00 0.000E+00 9.022E-02 8.973E-02 
6.000E-01 3.418E-04 8.285E-02 1.235E-04 0.000E+00 0.000E+00 8.332E-02 8.298E-02 
8.000E-01 1.926E-04 7.282E-02 6.270E-05 0.000E+00 0.000E+00 7.308E-02 7.289E-02 
1.000E+00 1.234E-04 6.550E-02 3.898E-05 0.000E+00 0.000E+00 6.566E-02 6.554E-02 
1.022E+00 1.182E-04 6.482E-02 3.686E-05 0.000E+00 0.000E+00 6.497E-02 6.485E-02 
1.250E+00 7.902E-05 5.858E-02 2.497E-05 2.763E-05 0.000E+00 5.871E-02 5.863E-02 
1.500E+00 5.489E-05 5.324E-02 1.805E-05 1.491E-04 0.000E+00 5.346E-02 5.341E-02 
2.000E+00 3.089E-05 4.544E-02 1.120E-05 5.873E-04 0.000E+00 4.607E-02 4.604E-02 
2.044E+00 2.957E-05 4.487E-02 1.083E-05 6.329E-04 0.000E+00 4.555E-02 4.552E-02 
3.000E+00 1.373E-05 3.575E-02 6.143E-06 1.664E-03 1.251E-05 3.745E-02 3.743E-02 
4.000E+00 7.726E-06 2.982E-02 4.164E-06 2.686E-03 5.107E-05 3.257E-02 3.256E-02 
5.000E+00 4.944E-06 2.575E-02 3.133E-06 3.595E-03 1.018E-04 2.946E-02 2.945E-02 
6.000E+00 3.433E-06 2.276E-02 2.504E-06 4.410E-03 1.563E-04 2.734E-02 2.733E-02 
