Density

0.81

Photon    Coherent Incoher. Photoel. Nuclear  Electron Tot. w/  Tot. wo/ 
Energy    Scatter. Scatter. Absorb.  Pr. Prd. Pr. Prd. Coherent Coherent 

1.000E-03 1.14E+00 1.60E-02 2.81E+03 0.00E+00 0.00E+00 2.81E+03 2.81E+03 
1.500E-03 1.03E+00 3.19E-02 9.26E+02 0.00E+00 0.00E+00 9.27E+02 9.26E+02 
2.000E-03 9.17E-01 4.91E-02 4.09E+02 0.00E+00 0.00E+00 4.10E+02 4.09E+02 
3.000E-03 7.00E-01 8.05E-02 1.25E+02 0.00E+00 0.00E+00 1.26E+02 1.25E+02 
4.000E-03 5.36E-01 1.05E-01 5.30E+01 0.00E+00 0.00E+00 5.36E+01 5.31E+01 
5.000E-03 4.20E-01 1.22E-01 2.69E+01 0.00E+00 0.00E+00 2.75E+01 2.70E+01 
6.000E-03 3.39E-01 1.35E-01 1.54E+01 0.00E+00 0.00E+00 1.58E+01 1.55E+01 
8.000E-03 2.38E-01 1.52E-01 6.28E+00 0.00E+00 0.00E+00 6.67E+00 6.43E+00 
1.000E-02 1.79E-01 1.62E-01 3.11E+00 0.00E+00 0.00E+00 3.45E+00 3.27E+00 
1.500E-02 1.06E-01 1.77E-01 8.54E-01 0.00E+00 0.00E+00 1.14E+00 1.03E+00 
2.000E-02 7.00E-02 1.84E-01 3.37E-01 0.00E+00 0.00E+00 5.91E-01 5.21E-01 
3.000E-02 3.67E-02 1.88E-01 8.97E-02 0.00E+00 0.00E+00 3.15E-01 2.78E-01 
4.000E-02 2.24E-02 1.87E-01 3.48E-02 0.00E+00 0.00E+00 2.45E-01 2.22E-01 
5.000E-02 1.50E-02 1.85E-01 1.66E-02 0.00E+00 0.00E+00 2.16E-01 2.01E-01 
6.000E-02 1.08E-02 1.81E-01 9.10E-03 0.00E+00 0.00E+00 2.01E-01 1.90E-01 
8.000E-02 6.31E-03 1.73E-01 3.51E-03 0.00E+00 0.00E+00 1.83E-01 1.77E-01 
1.000E-01 4.12E-03 1.66E-01 1.68E-03 0.00E+00 0.00E+00 1.71E-01 1.67E-01 
1.500E-01 1.87E-03 1.50E-01 4.42E-04 0.00E+00 0.00E+00 1.52E-01 1.50E-01 
2.000E-01 1.06E-03 1.38E-01 1.74E-04 0.00E+00 0.00E+00 1.39E-01 1.38E-01 
3.000E-01 4.76E-04 1.20E-01 4.92E-05 0.00E+00 0.00E+00 1.20E-01 1.20E-01 
4.000E-01 2.68E-04 1.07E-01 2.10E-05 0.00E+00 0.00E+00 1.08E-01 1.07E-01 
5.000E-01 1.72E-04 9.82E-02 1.13E-05 0.00E+00 0.00E+00 9.84E-02 9.82E-02 
6.000E-01 1.19E-04 9.08E-02 7.05E-06 0.00E+00 0.00E+00 9.10E-02 9.08E-02 
8.000E-01 6.72E-05 7.98E-02 3.56E-06 0.00E+00 0.00E+00 7.99E-02 7.98E-02 
1.000E+00 4.30E-05 7.18E-02 2.21E-06 0.00E+00 0.00E+00 7.18E-02 7.18E-02 
1.022E+00 4.12E-05 7.10E-02 2.05E-06 0.00E+00 0.00E+00 7.11E-02 7.10E-02 
1.250E+00 2.75E-05 6.42E-02 1.40E-06 1.50E-05 0.00E+00 6.42E-02 6.42E-02 
1.500E+00 1.91E-05 5.83E-02 1.01E-06 8.32E-05 0.00E+00 5.84E-02 5.84E-02 
2.000E+00 1.08E-05 4.98E-02 6.37E-07 3.31E-04 0.00E+00 5.01E-02 5.01E-02 
2.044E+00 1.03E-05 4.92E-02 6.17E-07 3.57E-04 0.00E+00 4.95E-02 4.95E-02 
3.000E+00 4.78E-06 3.92E-02 3.57E-07 9.48E-04 1.37E-05 4.01E-02 4.01E-02 
4.000E+00 2.69E-06 3.27E-02 2.45E-07 1.54E-03 5.59E-05 3.43E-02 3.43E-02 
5.000E+00 1.72E-06 2.82E-02 1.86E-07 2.06E-03 1.11E-04 3.04E-02 3.04E-02 
6.000E+00 1.20E-06 2.49E-02 1.49E-07 2.54E-03 1.71E-04 2.76E-02 2.76E-02 
