Density

0.977

Photon    Coherent Incoher. Photoel. Nuclear  Electron Tot. w/  Tot. wo/ 
Energy    Scatter. Scatter. Absorb.  Pr. Prd. Pr. Prd. Coherent Coherent 

1.000E-03 1.35E+00 1.35E-02 3.95E+03 0.00E+00 0.00E+00 3.95E+03 3.95E+03 
1.500E-03 1.25E+00 2.72E-02 1.33E+03 0.00E+00 0.00E+00 1.33E+03 1.33E+03 
2.000E-03 1.13E+00 4.26E-02 5.95E+02 0.00E+00 0.00E+00 5.97E+02 5.96E+02 
3.000E-03 8.88E-01 7.17E-02 1.85E+02 0.00E+00 0.00E+00 1.86E+02 1.85E+02 
4.000E-03 6.91E-01 9.53E-02 7.91E+01 0.00E+00 0.00E+00 7.99E+01 7.92E+01 
5.000E-03 5.44E-01 1.13E-01 4.04E+01 0.00E+00 0.00E+00 4.11E+01 4.05E+01 
6.000E-03 4.38E-01 1.27E-01 2.32E+01 0.00E+00 0.00E+00 2.38E+01 2.33E+01 
8.000E-03 3.03E-01 1.45E-01 9.56E+00 0.00E+00 0.00E+00 1.00E+01 9.70E+00 
1.000E-02 2.25E-01 1.56E-01 4.76E+00 0.00E+00 0.00E+00 5.14E+00 4.92E+00 
1.500E-02 1.31E-01 1.71E-01 1.32E+00 0.00E+00 0.00E+00 1.62E+00 1.49E+00 
2.000E-02 8.67E-02 1.78E-01 5.23E-01 0.00E+00 0.00E+00 7.88E-01 7.01E-01 
3.000E-02 4.59E-02 1.83E-01 1.40E-01 0.00E+00 0.00E+00 3.70E-01 3.24E-01 
4.000E-02 2.81E-02 1.83E-01 5.46E-02 0.00E+00 0.00E+00 2.66E-01 2.38E-01 
5.000E-02 1.89E-02 1.81E-01 2.62E-02 0.00E+00 0.00E+00 2.26E-01 2.07E-01 
6.000E-02 1.36E-02 1.77E-01 1.43E-02 0.00E+00 0.00E+00 2.05E-01 1.92E-01 
8.000E-02 7.98E-03 1.70E-01 5.54E-03 0.00E+00 0.00E+00 1.84E-01 1.76E-01 
1.000E-01 5.23E-03 1.63E-01 2.65E-03 0.00E+00 0.00E+00 1.71E-01 1.66E-01 
1.500E-01 2.39E-03 1.48E-01 7.02E-04 0.00E+00 0.00E+00 1.51E-01 1.48E-01 
2.000E-01 1.36E-03 1.36E-01 2.77E-04 0.00E+00 0.00E+00 1.37E-01 1.36E-01 
3.000E-01 6.07E-04 1.18E-01 7.84E-05 0.00E+00 0.00E+00 1.19E-01 1.18E-01 
4.000E-01 3.42E-04 1.06E-01 3.35E-05 0.00E+00 0.00E+00 1.06E-01 1.06E-01 
5.000E-01 2.19E-04 9.68E-02 1.81E-05 0.00E+00 0.00E+00 9.70E-02 9.68E-02 
6.000E-01 1.52E-04 8.95E-02 1.13E-05 0.00E+00 0.00E+00 8.97E-02 8.95E-02 
8.000E-01 8.58E-05 7.87E-02 5.68E-06 0.00E+00 0.00E+00 7.88E-02 7.87E-02 
1.000E+00 5.49E-05 7.08E-02 3.53E-06 0.00E+00 0.00E+00 7.08E-02 7.08E-02 
1.022E+00 5.26E-05 7.00E-02 3.29E-06 0.00E+00 0.00E+00 7.01E-02 7.00E-02 
1.250E+00 3.52E-05 6.33E-02 2.24E-06 1.75E-05 0.00E+00 6.33E-02 6.33E-02 
1.500E+00 2.44E-05 5.75E-02 1.62E-06 9.67E-05 0.00E+00 5.76E-02 5.76E-02 
2.000E+00 1.37E-05 4.91E-02 1.02E-06 3.85E-04 0.00E+00 4.95E-02 4.95E-02 
2.044E+00 1.32E-05 4.85E-02 9.87E-07 4.15E-04 0.00E+00 4.89E-02 4.89E-02 
3.000E+00 6.11E-06 3.86E-02 5.70E-07 1.10E-03 1.35E-05 3.97E-02 3.97E-02 
4.000E+00 3.44E-06 3.22E-02 3.91E-07 1.78E-03 5.52E-05 3.41E-02 3.40E-02 
5.000E+00 2.20E-06 2.78E-02 2.97E-07 2.39E-03 1.10E-04 3.03E-02 3.03E-02 
6.000E+00 1.53E-06 2.46E-02 2.39E-07 2.94E-03 1.69E-04 2.77E-02 2.77E-02 
