Density

0.94

Photon    Coherent Incoher. Photoel. Nuclear  Electron Tot. w/  Tot. wo/ 
Energy    Scatter. Scatter. Absorb.  Pr. Prd. Pr. Prd. Coherent Coherent 

1.000E-03 1.28E+00 1.43E-02 3.57E+03 0.00E+00 0.00E+00 3.57E+03 3.57E+03 
1.500E-03 1.18E+00 2.88E-02 1.20E+03 0.00E+00 0.00E+00 1.20E+03 1.20E+03 
2.000E-03 1.06E+00 4.47E-02 5.33E+02 0.00E+00 0.00E+00 5.34E+02 5.33E+02 
3.000E-03 8.25E-01 7.47E-02 1.65E+02 0.00E+00 0.00E+00 1.66E+02 1.65E+02 
4.000E-03 6.39E-01 9.85E-02 7.04E+01 0.00E+00 0.00E+00 7.11E+01 7.05E+01 
5.000E-03 5.03E-01 1.16E-01 3.59E+01 0.00E+00 0.00E+00 3.65E+01 3.60E+01 
6.000E-03 4.05E-01 1.30E-01 2.06E+01 0.00E+00 0.00E+00 2.11E+01 2.07E+01 
8.000E-03 2.81E-01 1.47E-01 8.46E+00 0.00E+00 0.00E+00 8.89E+00 8.61E+00 
1.000E-02 2.10E-01 1.58E-01 4.21E+00 0.00E+00 0.00E+00 4.58E+00 4.37E+00 
1.500E-02 1.22E-01 1.73E-01 1.16E+00 0.00E+00 0.00E+00 1.46E+00 1.34E+00 
2.000E-02 8.11E-02 1.80E-01 4.61E-01 0.00E+00 0.00E+00 7.22E-01 6.41E-01 
3.000E-02 4.28E-02 1.85E-01 1.23E-01 0.00E+00 0.00E+00 3.51E-01 3.08E-01 
4.000E-02 2.62E-02 1.85E-01 4.80E-02 0.00E+00 0.00E+00 2.59E-01 2.33E-01 
5.000E-02 1.76E-02 1.82E-01 2.30E-02 0.00E+00 0.00E+00 2.23E-01 2.05E-01 
6.000E-02 1.27E-02 1.79E-01 1.26E-02 0.00E+00 0.00E+00 2.04E-01 1.91E-01 
8.000E-02 7.42E-03 1.71E-01 4.86E-03 0.00E+00 0.00E+00 1.83E-01 1.76E-01 
1.000E-01 4.86E-03 1.64E-01 2.33E-03 0.00E+00 0.00E+00 1.71E-01 1.66E-01 
1.500E-01 2.21E-03 1.48E-01 6.15E-04 0.00E+00 0.00E+00 1.51E-01 1.49E-01 
2.000E-01 1.26E-03 1.36E-01 2.43E-04 0.00E+00 0.00E+00 1.38E-01 1.36E-01 
3.000E-01 5.63E-04 1.19E-01 6.86E-05 0.00E+00 0.00E+00 1.19E-01 1.19E-01 
4.000E-01 3.18E-04 1.06E-01 2.94E-05 0.00E+00 0.00E+00 1.07E-01 1.06E-01 
5.000E-01 2.04E-04 9.73E-02 1.58E-05 0.00E+00 0.00E+00 9.75E-02 9.73E-02 
6.000E-01 1.41E-04 9.00E-02 9.86E-06 0.00E+00 0.00E+00 9.01E-02 9.00E-02 
8.000E-01 7.96E-05 7.91E-02 4.98E-06 0.00E+00 0.00E+00 7.91E-02 7.91E-02 
1.000E+00 5.10E-05 7.11E-02 3.09E-06 0.00E+00 0.00E+00 7.12E-02 7.11E-02 
1.022E+00 4.88E-05 7.04E-02 2.88E-06 0.00E+00 0.00E+00 7.04E-02 7.04E-02 
1.250E+00 3.26E-05 6.36E-02 1.96E-06 1.67E-05 0.00E+00 6.36E-02 6.36E-02 
1.500E+00 2.27E-05 5.78E-02 1.42E-06 9.22E-05 0.00E+00 5.79E-02 5.79E-02 
2.000E+00 1.27E-05 4.93E-02 8.93E-07 3.67E-04 0.00E+00 4.97E-02 4.97E-02 
2.044E+00 1.22E-05 4.87E-02 8.63E-07 3.96E-04 0.00E+00 4.91E-02 4.91E-02 
3.000E+00 5.67E-06 3.88E-02 4.99E-07 1.05E-03 1.36E-05 3.99E-02 3.99E-02 
4.000E+00 3.19E-06 3.24E-02 3.42E-07 1.70E-03 5.54E-05 3.41E-02 3.41E-02 
5.000E+00 2.04E-06 2.79E-02 2.60E-07 2.28E-03 1.10E-04 3.03E-02 3.03E-02 
6.000E+00 1.42E-06 2.47E-02 2.09E-07 2.81E-03 1.70E-04 2.77E-02 2.77E-02 
