Density

0.85

Photon    Coherent Incoher. Photoel. Nuclear  Electron Tot. w/  Tot. wo/ 
Energy    Scatter. Scatter. Absorb.  Pr. Prd. Pr. Prd. Coherent Coherent 

1.000E-03 1.19E+00 1.54E-02 3.07E+03 0.00E+00 0.00E+00 3.07E+03 3.07E+03 
1.500E-03 1.08E+00 3.09E-02 1.02E+03 0.00E+00 0.00E+00 1.02E+03 1.02E+03 
2.000E-03 9.64E-01 4.76E-02 4.51E+02 0.00E+00 0.00E+00 4.52E+02 4.51E+02 
3.000E-03 7.42E-01 7.86E-02 1.39E+02 0.00E+00 0.00E+00 1.39E+02 1.39E+02 
4.000E-03 5.70E-01 1.03E-01 5.88E+01 0.00E+00 0.00E+00 5.95E+01 5.89E+01 
5.000E-03 4.47E-01 1.20E-01 2.99E+01 0.00E+00 0.00E+00 3.05E+01 3.00E+01 
6.000E-03 3.61E-01 1.33E-01 1.71E+01 0.00E+00 0.00E+00 1.76E+01 1.72E+01 
8.000E-03 2.52E-01 1.50E-01 7.01E+00 0.00E+00 0.00E+00 7.41E+00 7.16E+00 
1.000E-02 1.90E-01 1.61E-01 3.48E+00 0.00E+00 0.00E+00 3.83E+00 3.64E+00 
1.500E-02 1.11E-01 1.75E-01 9.57E-01 0.00E+00 0.00E+00 1.24E+00 1.13E+00 
2.000E-02 7.37E-02 1.83E-01 3.78E-01 0.00E+00 0.00E+00 6.35E-01 5.61E-01 
3.000E-02 3.88E-02 1.87E-01 1.01E-01 0.00E+00 0.00E+00 3.27E-01 2.88E-01 
4.000E-02 2.37E-02 1.87E-01 3.92E-02 0.00E+00 0.00E+00 2.49E-01 2.26E-01 
5.000E-02 1.59E-02 1.84E-01 1.88E-02 0.00E+00 0.00E+00 2.18E-01 2.02E-01 
6.000E-02 1.14E-02 1.80E-01 1.03E-02 0.00E+00 0.00E+00 2.02E-01 1.90E-01 
8.000E-02 6.68E-03 1.72E-01 3.96E-03 0.00E+00 0.00E+00 1.83E-01 1.76E-01 
1.000E-01 4.37E-03 1.65E-01 1.89E-03 0.00E+00 0.00E+00 1.71E-01 1.67E-01 
1.500E-01 1.99E-03 1.49E-01 5.00E-04 0.00E+00 0.00E+00 1.52E-01 1.50E-01 
2.000E-01 1.13E-03 1.37E-01 1.97E-04 0.00E+00 0.00E+00 1.38E-01 1.37E-01 
3.000E-01 5.05E-04 1.19E-01 5.56E-05 0.00E+00 0.00E+00 1.20E-01 1.20E-01 
4.000E-01 2.85E-04 1.07E-01 2.38E-05 0.00E+00 0.00E+00 1.07E-01 1.07E-01 
5.000E-01 1.82E-04 9.79E-02 1.28E-05 0.00E+00 0.00E+00 9.81E-02 9.79E-02 
6.000E-01 1.27E-04 9.05E-02 7.99E-06 0.00E+00 0.00E+00 9.07E-02 9.06E-02 
8.000E-01 7.14E-05 7.96E-02 4.03E-06 0.00E+00 0.00E+00 7.96E-02 7.96E-02 
1.000E+00 4.57E-05 7.16E-02 2.51E-06 0.00E+00 0.00E+00 7.16E-02 7.16E-02 
1.022E+00 4.37E-05 7.08E-02 2.33E-06 0.00E+00 0.00E+00 7.09E-02 7.08E-02 
1.250E+00 2.92E-05 6.40E-02 1.58E-06 1.56E-05 0.00E+00 6.40E-02 6.40E-02 
1.500E+00 2.03E-05 5.82E-02 1.15E-06 8.62E-05 0.00E+00 5.83E-02 5.82E-02 
2.000E+00 1.14E-05 4.96E-02 7.23E-07 3.43E-04 0.00E+00 5.00E-02 5.00E-02 
2.044E+00 1.09E-05 4.90E-02 6.99E-07 3.70E-04 0.00E+00 4.94E-02 4.94E-02 
3.000E+00 5.08E-06 3.90E-02 4.04E-07 9.82E-04 1.37E-05 4.00E-02 4.00E-02 
4.000E+00 2.86E-06 3.26E-02 2.77E-07 1.59E-03 5.58E-05 3.42E-02 3.42E-02 
5.000E+00 1.83E-06 2.81E-02 2.10E-07 2.14E-03 1.11E-04 3.04E-02 3.04E-02 
6.000E+00 1.27E-06 2.49E-02 1.69E-07 2.63E-03 1.71E-04 2.77E-02 2.77E-02 
