Density

1.330

Photon    Coherent Incoher. Photoel. Nuclear  Electron Tot. w/  Tot. wo/ 
Energy    Scatter. Scatter. Absorb.  Pr. Prd. Pr. Prd. Coherent Coherent 

1.000E-03 1.606E+00 1.392E-02 3.286E+03 0.000E+00 0.000E+00 3.287E+03 3.286E+03 
1.035E-03 1.595E+00 1.475E-02 2.993E+03 0.000E+00 0.000E+00 2.995E+03 2.993E+03 
1.072E-03 1.584E+00 1.563E-02 2.727E+03 0.000E+00 0.000E+00 2.728E+03 2.727E+03 
1.072E-03 1.584E+00 1.563E-02 2.733E+03 0.000E+00 0.000E+00 2.734E+03 2.733E+03 
1.183E-03 1.552E+00 1.841E-02 2.100E+03 0.000E+00 0.000E+00 2.101E+03 2.100E+03 
1.305E-03 1.518E+00 2.163E-02 1.611E+03 0.000E+00 0.000E+00 1.613E+03 1.611E+03 
1.305E-03 1.518E+00 2.163E-02 1.616E+03 0.000E+00 0.000E+00 1.618E+03 1.616E+03 
1.500E-03 1.462E+00 2.697E-02 1.107E+03 0.000E+00 0.000E+00 1.109E+03 1.107E+03 
2.000E-03 1.310E+00 4.095E-02 4.967E+02 0.000E+00 0.000E+00 4.980E+02 4.967E+02 
2.145E-03 1.267E+00 4.498E-02 4.070E+02 0.000E+00 0.000E+00 4.083E+02 4.070E+02 
2.145E-03 1.267E+00 4.498E-02 5.293E+02 0.000E+00 0.000E+00 5.306E+02 5.294E+02 
2.303E-03 1.221E+00 4.927E-02 4.369E+02 0.000E+00 0.000E+00 4.382E+02 4.370E+02 
2.472E-03 1.174E+00 5.379E-02 3.605E+02 0.000E+00 0.000E+00 3.617E+02 3.605E+02 
2.472E-03 1.174E+00 5.379E-02 3.642E+02 0.000E+00 0.000E+00 3.654E+02 3.642E+02 
2.641E-03 1.128E+00 5.819E-02 3.040E+02 0.000E+00 0.000E+00 3.052E+02 3.041E+02 
2.822E-03 1.081E+00 6.275E-02 2.534E+02 0.000E+00 0.000E+00 2.546E+02 2.535E+02 
2.822E-03 1.081E+00 6.275E-02 2.549E+02 0.000E+00 0.000E+00 2.561E+02 2.550E+02 
3.000E-03 1.037E+00 6.705E-02 2.154E+02 0.000E+00 0.000E+00 2.165E+02 2.154E+02 
4.000E-03 8.235E-01 8.797E-02 9.520E+01 0.000E+00 0.000E+00 9.611E+01 9.529E+01 
4.038E-03 8.165E-01 8.865E-02 9.264E+01 0.000E+00 0.000E+00 9.355E+01 9.273E+01 
4.038E-03 8.165E-01 8.865E-02 2.093E+02 0.000E+00 0.000E+00 2.103E+02 2.094E+02 
5.000E-03 6.666E-01 1.038E-01 1.192E+02 0.000E+00 0.000E+00 1.200E+02 1.193E+02 
6.000E-03 5.523E-01 1.156E-01 7.229E+01 0.000E+00 0.000E+00 7.296E+01 7.240E+01 
8.000E-03 4.031E-01 1.319E-01 3.242E+01 0.000E+00 0.000E+00 3.295E+01 3.255E+01 
1.000E-02 3.123E-01 1.425E-01 1.715E+01 0.000E+00 0.000E+00 1.761E+01 1.730E+01 
1.500E-02 1.887E-01 1.582E-01 5.253E+00 0.000E+00 0.000E+00 5.600E+00 5.411E+00 
2.000E-02 1.257E-01 1.666E-01 2.227E+00 0.000E+00 0.000E+00 2.519E+00 2.394E+00 
3.000E-02 6.689E-02 1.731E-01 6.491E-01 0.000E+00 0.000E+00 8.890E-01 8.221E-01 
4.000E-02 4.158E-02 1.734E-01 2.670E-01 0.000E+00 0.000E+00 4.820E-01 4.404E-01 
5.000E-02 2.840E-02 1.715E-01 1.331E-01 0.000E+00 0.000E+00 3.330E-01 3.046E-01 
6.000E-02 2.062E-02 1.687E-01 7.511E-02 0.000E+00 0.000E+00 2.644E-01 2.438E-01 
8.000E-02 1.225E-02 1.621E-01 3.029E-02 0.000E+00 0.000E+00 2.046E-01 1.924E-01 
1.000E-01 8.083E-03 1.555E-01 1.494E-02 0.000E+00 0.000E+00 1.786E-01 1.705E-01 
1.500E-01 3.734E-03 1.412E-01 4.147E-03 0.000E+00 0.000E+00 1.491E-01 1.453E-01 
2.000E-01 2.138E-03 1.298E-01 1.687E-03 0.000E+00 0.000E+00 1.336E-01 1.315E-01 
3.000E-01 9.648E-04 1.132E-01 4.921E-04 0.000E+00 0.000E+00 1.147E-01 1.137E-01 
4.000E-01 5.461E-04 1.015E-01 2.145E-04 0.000E+00 0.000E+00 1.023E-01 1.018E-01 
5.000E-01 3.505E-04 9.280E-02 1.169E-04 0.000E+00 0.000E+00 9.326E-02 9.291E-02 
6.000E-01 2.438E-04 8.586E-02 7.322E-05 0.000E+00 0.000E+00 8.618E-02 8.593E-02 
8.000E-01 1.374E-04 7.545E-02 3.715E-05 0.000E+00 0.000E+00 7.563E-02 7.549E-02 
1.000E+00 8.798E-05 6.786E-02 2.310E-05 0.000E+00 0.000E+00 6.797E-02 6.788E-02 
1.022E+00 8.426E-05 6.715E-02 2.183E-05 0.000E+00 0.000E+00 6.726E-02 6.717E-02 
1.250E+00 5.634E-05 6.069E-02 1.478E-05 2.204E-05 0.000E+00 6.078E-02 6.072E-02 
1.500E+00 3.913E-05 5.516E-02 1.069E-05 1.199E-04 0.000E+00 5.533E-02 5.529E-02 
2.000E+00 2.202E-05 4.707E-02 6.638E-06 4.738E-04 0.000E+00 4.758E-02 4.755E-02 
2.044E+00 2.108E-05 4.649E-02 6.416E-06 5.106E-04 0.000E+00 4.702E-02 4.700E-02 
3.000E+00 9.789E-06 3.703E-02 3.643E-06 1.346E-03 1.296E-05 3.841E-02 3.840E-02 
4.000E+00 5.507E-06 3.089E-02 2.471E-06 2.177E-03 5.290E-05 3.313E-02 3.313E-02 
5.000E+00 3.524E-06 2.668E-02 1.859E-06 2.916E-03 1.054E-04 2.970E-02 2.970E-02 
6.000E+00 2.447E-06 2.358E-02 1.486E-06 3.579E-03 1.619E-04 2.733E-02 2.732E-02 
