Density

1.02

Photon    Coherent Incoher. Photoel. Nuclear  Electron Tot. w/  Tot. wo/ 
Energy    Scatter. Scatter. Absorb.  Pr. Prd. Pr. Prd. Coherent Coherent 

1.000E-03 1.24E+00 1.44E-02 3.26E+03 0.00E+00 0.00E+00 3.26E+03 3.26E+03 
1.035E-03 1.23E+00 1.53E-02 2.97E+03 0.00E+00 0.00E+00 2.97E+03 2.97E+03 
1.072E-03 1.22E+00 1.63E-02 2.70E+03 0.00E+00 0.00E+00 2.71E+03 2.70E+03 
1.072E-03 1.22E+00 1.63E-02 2.71E+03 0.00E+00 0.00E+00 2.71E+03 2.71E+03 
1.500E-03 1.13E+00 2.89E-02 1.09E+03 0.00E+00 0.00E+00 1.09E+03 1.09E+03 
2.000E-03 1.01E+00 4.47E-02 4.83E+02 0.00E+00 0.00E+00 4.84E+02 4.83E+02 
2.145E-03 9.75E-01 4.93E-02 3.95E+02 0.00E+00 0.00E+00 3.96E+02 3.95E+02 
2.145E-03 9.75E-01 4.93E-02 3.97E+02 0.00E+00 0.00E+00 3.98E+02 3.97E+02 
2.303E-03 9.37E-01 5.42E-02 3.24E+02 0.00E+00 0.00E+00 3.25E+02 3.24E+02 
2.472E-03 8.98E-01 5.93E-02 2.64E+02 0.00E+00 0.00E+00 2.65E+02 2.64E+02 
2.472E-03 8.98E-01 5.93E-02 2.68E+02 0.00E+00 0.00E+00 2.69E+02 2.68E+02 
2.641E-03 8.59E-01 6.43E-02 2.21E+02 0.00E+00 0.00E+00 2.22E+02 2.21E+02 
2.822E-03 8.20E-01 6.95E-02 1.82E+02 0.00E+00 0.00E+00 1.83E+02 1.82E+02 
2.822E-03 8.20E-01 6.95E-02 1.84E+02 0.00E+00 0.00E+00 1.85E+02 1.84E+02 
3.000E-03 7.82E-01 7.43E-02 1.54E+02 0.00E+00 0.00E+00 1.55E+02 1.54E+02 
4.000E-03 6.03E-01 9.78E-02 6.56E+01 0.00E+00 0.00E+00 6.63E+01 6.56E+01 
5.000E-03 4.74E-01 1.15E-01 3.35E+01 0.00E+00 0.00E+00 3.41E+01 3.36E+01 
6.000E-03 3.83E-01 1.28E-01 1.92E+01 0.00E+00 0.00E+00 1.97E+01 1.93E+01 
8.000E-03 2.67E-01 1.45E-01 7.91E+00 0.00E+00 0.00E+00 8.32E+00 8.05E+00 
1.000E-02 2.01E-01 1.56E-01 3.94E+00 0.00E+00 0.00E+00 4.30E+00 4.09E+00 
1.500E-02 1.18E-01 1.70E-01 1.09E+00 0.00E+00 0.00E+00 1.38E+00 1.26E+00 
2.000E-02 7.80E-02 1.78E-01 4.33E-01 0.00E+00 0.00E+00 6.89E-01 6.11E-01 
3.000E-02 4.11E-02 1.83E-01 1.16E-01 0.00E+00 0.00E+00 3.40E-01 2.99E-01 
4.000E-02 2.51E-02 1.83E-01 4.53E-02 0.00E+00 0.00E+00 2.53E-01 2.28E-01 
5.000E-02 1.69E-02 1.80E-01 2.17E-02 0.00E+00 0.00E+00 2.19E-01 2.02E-01 
6.000E-02 1.21E-02 1.77E-01 1.19E-02 0.00E+00 0.00E+00 2.01E-01 1.88E-01 
8.000E-02 7.10E-03 1.69E-01 4.61E-03 0.00E+00 0.00E+00 1.81E-01 1.74E-01 
1.000E-01 4.65E-03 1.62E-01 2.21E-03 0.00E+00 0.00E+00 1.69E-01 1.64E-01 
1.500E-01 2.12E-03 1.47E-01 5.85E-04 0.00E+00 0.00E+00 1.49E-01 1.47E-01 
2.000E-01 1.20E-03 1.35E-01 2.31E-04 0.00E+00 0.00E+00 1.36E-01 1.35E-01 
3.000E-01 5.38E-04 1.17E-01 6.54E-05 0.00E+00 0.00E+00 1.18E-01 1.17E-01 
4.000E-01 3.04E-04 1.05E-01 2.80E-05 0.00E+00 0.00E+00 1.06E-01 1.05E-01 
5.000E-01 1.95E-04 9.61E-02 1.51E-05 0.00E+00 0.00E+00 9.63E-02 9.61E-02 
6.000E-01 1.35E-04 8.89E-02 9.42E-06 0.00E+00 0.00E+00 8.90E-02 8.89E-02 
8.000E-01 7.61E-05 7.81E-02 4.75E-06 0.00E+00 0.00E+00 7.82E-02 7.81E-02 
1.000E+00 4.87E-05 7.03E-02 2.96E-06 0.00E+00 0.00E+00 7.03E-02 7.03E-02 
1.022E+00 4.66E-05 6.95E-02 2.75E-06 0.00E+00 0.00E+00 6.96E-02 6.95E-02 
1.250E+00 3.12E-05 6.28E-02 1.87E-06 1.62E-05 0.00E+00 6.29E-02 6.28E-02 
1.500E+00 2.17E-05 5.71E-02 1.36E-06 8.97E-05 0.00E+00 5.72E-02 5.72E-02 
2.000E+00 1.22E-05 4.87E-02 8.52E-07 3.57E-04 0.00E+00 4.91E-02 4.91E-02 
2.044E+00 1.17E-05 4.81E-02 8.24E-07 3.85E-04 0.00E+00 4.85E-02 4.85E-02 
3.000E+00 5.42E-06 3.83E-02 4.76E-07 1.02E-03 1.34E-05 3.94E-02 3.94E-02 
4.000E+00 3.05E-06 3.20E-02 3.27E-07 1.66E-03 5.48E-05 3.37E-02 3.37E-02 
5.000E+00 1.95E-06 2.76E-02 2.48E-07 2.22E-03 1.09E-04 2.99E-02 2.99E-02 
6.000E+00 1.35E-06 2.44E-02 1.99E-07 2.73E-03 1.68E-04 2.73E-02 2.73E-02 
