Density

0.99

Photon    Coherent Incoher. Photoel. Nuclear  Electron Tot. w/  Tot. wo/ 
Energy    Scatter. Scatter. Absorb.  Pr. Prd. Pr. Prd. Coherent Coherent 

1.000E-03 1.16E+00 1.52E-02 2.85E+03 0.00E+00 0.00E+00 2.85E+03 2.85E+03 
1.035E-03 1.15E+00 1.62E-02 2.59E+03 0.00E+00 0.00E+00 2.59E+03 2.59E+03 
1.072E-03 1.15E+00 1.72E-02 2.35E+03 0.00E+00 0.00E+00 2.36E+03 2.35E+03 
1.072E-03 1.15E+00 1.72E-02 2.36E+03 0.00E+00 0.00E+00 2.36E+03 2.36E+03 
1.500E-03 1.05E+00 3.04E-02 9.39E+02 0.00E+00 0.00E+00 9.40E+02 9.39E+02 
2.000E-03 9.33E-01 4.68E-02 4.15E+02 0.00E+00 0.00E+00 4.16E+02 4.15E+02 
2.145E-03 8.98E-01 5.15E-02 3.39E+02 0.00E+00 0.00E+00 3.40E+02 3.39E+02 
2.145E-03 8.98E-01 5.15E-02 3.41E+02 0.00E+00 0.00E+00 3.42E+02 3.41E+02 
2.303E-03 8.61E-01 5.65E-02 2.78E+02 0.00E+00 0.00E+00 2.79E+02 2.78E+02 
2.472E-03 8.23E-01 6.18E-02 2.26E+02 0.00E+00 0.00E+00 2.27E+02 2.26E+02 
2.472E-03 8.23E-01 6.18E-02 2.28E+02 0.00E+00 0.00E+00 2.29E+02 2.28E+02 
2.641E-03 7.86E-01 6.69E-02 1.88E+02 0.00E+00 0.00E+00 1.89E+02 1.88E+02 
2.822E-03 7.48E-01 7.21E-02 1.55E+02 0.00E+00 0.00E+00 1.55E+02 1.55E+02 
2.822E-03 7.48E-01 7.21E-02 1.56E+02 0.00E+00 0.00E+00 1.57E+02 1.56E+02 
3.000E-03 7.12E-01 7.71E-02 1.30E+02 0.00E+00 0.00E+00 1.31E+02 1.31E+02 
4.000E-03 5.45E-01 1.01E-01 5.54E+01 0.00E+00 0.00E+00 5.60E+01 5.55E+01 
5.000E-03 4.28E-01 1.18E-01 2.82E+01 0.00E+00 0.00E+00 2.87E+01 2.83E+01 
6.000E-03 3.46E-01 1.30E-01 1.61E+01 0.00E+00 0.00E+00 1.66E+01 1.63E+01 
8.000E-03 2.43E-01 1.47E-01 6.61E+00 0.00E+00 0.00E+00 7.00E+00 6.76E+00 
1.000E-02 1.84E-01 1.57E-01 3.29E+00 0.00E+00 0.00E+00 3.63E+00 3.44E+00 
1.500E-02 1.08E-01 1.72E-01 9.05E-01 0.00E+00 0.00E+00 1.19E+00 1.08E+00 
2.000E-02 7.17E-02 1.80E-01 3.58E-01 0.00E+00 0.00E+00 6.10E-01 5.38E-01 
3.000E-02 3.76E-02 1.84E-01 9.58E-02 0.00E+00 0.00E+00 3.18E-01 2.80E-01 
4.000E-02 2.30E-02 1.84E-01 3.73E-02 0.00E+00 0.00E+00 2.44E-01 2.21E-01 
5.000E-02 1.54E-02 1.81E-01 1.79E-02 0.00E+00 0.00E+00 2.14E-01 1.99E-01 
6.000E-02 1.11E-02 1.77E-01 9.78E-03 0.00E+00 0.00E+00 1.98E-01 1.87E-01 
8.000E-02 6.48E-03 1.70E-01 3.78E-03 0.00E+00 0.00E+00 1.80E-01 1.73E-01 
1.000E-01 4.23E-03 1.62E-01 1.81E-03 0.00E+00 0.00E+00 1.68E-01 1.64E-01 
1.500E-01 1.93E-03 1.47E-01 4.79E-04 0.00E+00 0.00E+00 1.49E-01 1.48E-01 
2.000E-01 1.09E-03 1.35E-01 1.89E-04 0.00E+00 0.00E+00 1.36E-01 1.35E-01 
3.000E-01 4.89E-04 1.18E-01 5.34E-05 0.00E+00 0.00E+00 1.18E-01 1.18E-01 
4.000E-01 2.76E-04 1.05E-01 2.29E-05 0.00E+00 0.00E+00 1.06E-01 1.05E-01 
5.000E-01 1.77E-04 9.63E-02 1.23E-05 0.00E+00 0.00E+00 9.65E-02 9.64E-02 
6.000E-01 1.23E-04 8.91E-02 7.68E-06 0.00E+00 0.00E+00 8.93E-02 8.91E-02 
8.000E-01 6.91E-05 7.83E-02 3.87E-06 0.00E+00 0.00E+00 7.84E-02 7.83E-02 
1.000E+00 4.42E-05 7.04E-02 2.41E-06 0.00E+00 0.00E+00 7.05E-02 7.04E-02 
1.022E+00 4.23E-05 6.97E-02 2.24E-06 0.00E+00 0.00E+00 6.97E-02 6.97E-02 
1.250E+00 2.83E-05 6.30E-02 1.52E-06 1.53E-05 0.00E+00 6.30E-02 6.30E-02 
1.500E+00 1.97E-05 5.72E-02 1.10E-06 8.46E-05 0.00E+00 5.74E-02 5.73E-02 
2.000E+00 1.11E-05 4.89E-02 6.94E-07 3.37E-04 0.00E+00 4.92E-02 4.92E-02 
2.044E+00 1.06E-05 4.82E-02 6.72E-07 3.63E-04 0.00E+00 4.86E-02 4.86E-02 
3.000E+00 4.92E-06 3.84E-02 3.88E-07 9.65E-04 1.34E-05 3.94E-02 3.94E-02 
4.000E+00 2.77E-06 3.21E-02 2.66E-07 1.57E-03 5.49E-05 3.37E-02 3.37E-02 
5.000E+00 1.77E-06 2.77E-02 2.02E-07 2.10E-03 1.09E-04 2.99E-02 2.99E-02 
6.000E+00 1.23E-06 2.45E-02 1.62E-07 2.58E-03 1.68E-04 2.72E-02 2.72E-02 
