Density

1.06

Photon    Coherent Incoher. Photoel. Nuclear  Electron Tot. w/  Tot. wo/ 
Energy    Scatter. Scatter. Absorb.  Pr. Prd. Pr. Prd. Coherent Coherent 

1.000E-03 1.32E+00 1.35E-02 3.69E+03 0.00E+00 0.00E+00 3.69E+03 3.69E+03 
1.035E-03 1.31E+00 1.44E-02 3.36E+03 0.00E+00 0.00E+00 3.36E+03 3.36E+03 
1.072E-03 1.30E+00 1.53E-02 3.06E+03 0.00E+00 0.00E+00 3.06E+03 3.06E+03 
1.072E-03 1.30E+00 1.53E-02 3.07E+03 0.00E+00 0.00E+00 3.07E+03 3.07E+03 
1.500E-03 1.21E+00 2.73E-02 1.24E+03 0.00E+00 0.00E+00 1.24E+03 1.24E+03 
2.000E-03 1.09E+00 4.25E-02 5.53E+02 0.00E+00 0.00E+00 5.54E+02 5.53E+02 
2.145E-03 1.05E+00 4.69E-02 4.52E+02 0.00E+00 0.00E+00 4.53E+02 4.52E+02 
2.145E-03 1.05E+00 4.69E-02 4.55E+02 0.00E+00 0.00E+00 4.56E+02 4.55E+02 
2.303E-03 1.01E+00 5.17E-02 3.71E+02 0.00E+00 0.00E+00 3.72E+02 3.71E+02 
2.472E-03 9.73E-01 5.67E-02 3.03E+02 0.00E+00 0.00E+00 3.04E+02 3.03E+02 
2.472E-03 9.73E-01 5.67E-02 3.06E+02 0.00E+00 0.00E+00 3.07E+02 3.06E+02 
2.641E-03 9.33E-01 6.15E-02 2.53E+02 0.00E+00 0.00E+00 2.54E+02 2.53E+02 
2.822E-03 8.91E-01 6.66E-02 2.09E+02 0.00E+00 0.00E+00 2.10E+02 2.09E+02 
2.822E-03 8.91E-01 6.66E-02 2.10E+02 0.00E+00 0.00E+00 2.11E+02 2.10E+02 
3.000E-03 8.52E-01 7.14E-02 1.76E+02 0.00E+00 0.00E+00 1.77E+02 1.76E+02 
4.000E-03 6.61E-01 9.46E-02 7.53E+01 0.00E+00 0.00E+00 7.60E+01 7.54E+01 
5.000E-03 5.20E-01 1.12E-01 3.85E+01 0.00E+00 0.00E+00 3.92E+01 3.86E+01 
6.000E-03 4.19E-01 1.25E-01 2.21E+01 0.00E+00 0.00E+00 2.27E+01 2.23E+01 
8.000E-03 2.92E-01 1.43E-01 9.13E+00 0.00E+00 0.00E+00 9.56E+00 9.27E+00 
1.000E-02 2.18E-01 1.54E-01 4.55E+00 0.00E+00 0.00E+00 4.93E+00 4.71E+00 
1.500E-02 1.27E-01 1.69E-01 1.26E+00 0.00E+00 0.00E+00 1.56E+00 1.43E+00 
2.000E-02 8.42E-02 1.76E-01 5.03E-01 0.00E+00 0.00E+00 7.63E-01 6.79E-01 
3.000E-02 4.45E-02 1.82E-01 1.35E-01 0.00E+00 0.00E+00 3.61E-01 3.17E-01 
4.000E-02 2.72E-02 1.81E-01 5.27E-02 0.00E+00 0.00E+00 2.61E-01 2.34E-01 
5.000E-02 1.83E-02 1.79E-01 2.53E-02 0.00E+00 0.00E+00 2.23E-01 2.04E-01 
6.000E-02 1.32E-02 1.76E-01 1.39E-02 0.00E+00 0.00E+00 2.03E-01 1.89E-01 
8.000E-02 7.72E-03 1.68E-01 5.37E-03 0.00E+00 0.00E+00 1.81E-01 1.74E-01 
1.000E-01 5.06E-03 1.61E-01 2.57E-03 0.00E+00 0.00E+00 1.69E-01 1.64E-01 
1.500E-01 2.31E-03 1.46E-01 6.82E-04 0.00E+00 0.00E+00 1.49E-01 1.47E-01 
2.000E-01 1.31E-03 1.34E-01 2.70E-04 0.00E+00 0.00E+00 1.36E-01 1.34E-01 
3.000E-01 5.87E-04 1.17E-01 7.63E-05 0.00E+00 0.00E+00 1.18E-01 1.17E-01 
4.000E-01 3.31E-04 1.05E-01 3.27E-05 0.00E+00 0.00E+00 1.05E-01 1.05E-01 
5.000E-01 2.12E-04 9.58E-02 1.76E-05 0.00E+00 0.00E+00 9.60E-02 9.58E-02 
6.000E-01 1.47E-04 8.86E-02 1.10E-05 0.00E+00 0.00E+00 8.87E-02 8.86E-02 
8.000E-01 8.30E-05 7.79E-02 5.55E-06 0.00E+00 0.00E+00 7.79E-02 7.79E-02 
1.000E+00 5.31E-05 7.00E-02 3.45E-06 0.00E+00 0.00E+00 7.01E-02 7.00E-02 
1.022E+00 5.09E-05 6.93E-02 3.21E-06 0.00E+00 0.00E+00 6.93E-02 6.93E-02 
1.250E+00 3.40E-05 6.26E-02 2.18E-06 1.71E-05 0.00E+00 6.27E-02 6.26E-02 
1.500E+00 2.36E-05 5.69E-02 1.58E-06 9.47E-05 0.00E+00 5.70E-02 5.70E-02 
2.000E+00 1.33E-05 4.86E-02 9.95E-07 3.77E-04 0.00E+00 4.90E-02 4.89E-02 
2.044E+00 1.27E-05 4.80E-02 9.63E-07 4.06E-04 0.00E+00 4.84E-02 4.84E-02 
3.000E+00 5.91E-06 3.82E-02 5.56E-07 1.08E-03 1.34E-05 3.93E-02 3.93E-02 
4.000E+00 3.32E-06 3.19E-02 3.81E-07 1.75E-03 5.46E-05 3.37E-02 3.37E-02 
5.000E+00 2.13E-06 2.75E-02 2.89E-07 2.34E-03 1.09E-04 3.00E-02 3.00E-02 
6.000E+00 1.48E-06 2.43E-02 2.32E-07 2.88E-03 1.67E-04 2.74E-02 2.74E-02 
