Density

2.75

Photon    Coherent Incoher. Photoel. Nuclear  Electron Tot. w/  Tot. wo/
Energy    Scatter. Scatter. Absorb.  Pr. Prd. Pr. Prd. Coherent Coherent

1.000E-03 2.154E+00 1.114E-02 3.149E+03 0.000E+00 0.000E+00 3.151E+03 3.149E+03 
1.035E-03 2.140E+00 1.178E-02 2.874E+03 0.000E+00 0.000E+00 2.876E+03 2.874E+03
1.072E-03 2.126E+00 1.245E-02 2.623E+03 0.000E+00 0.000E+00 2.625E+03 2.623E+03
1.072E-03 2.126E+00 1.245E-02 2.798E+03 0.000E+00 0.000E+00 2.800E+03 2.798E+03
1.500E-03 1.970E+00 2.081E-02 1.167E+03 0.000E+00 0.000E+00 1.169E+03 1.167E+03
1.560E-03 1.948E+00 2.199E-02 1.051E+03 0.000E+00 0.000E+00 1.053E+03 1.052E+03
1.560E-03 1.948E+00 2.199E-02 1.555E+03 0.000E+00 0.000E+00 1.557E+03 1.555E+03
1.694E-03 1.897E+00 2.464E-02 1.263E+03 0.000E+00 0.000E+00 1.265E+03 1.263E+03
1.839E-03 1.842E+00 2.749E-02 1.024E+03 0.000E+00 0.000E+00 1.026E+03 1.024E+03
1.839E-03 1.842E+00 2.749E-02 1.995E+03 0.000E+00 0.000E+00 1.997E+03 1.995E+03
2.000E-03 1.783E+00 3.061E-02 1.676E+03 0.000E+00 0.000E+00 1.678E+03 1.676E+03
3.000E-03 1.454E+00 4.852E-02 5.747E+02 0.000E+00 0.000E+00 5.762E+02 5.748E+02
3.607E-03 1.292E+00 5.803E-02 3.467E+02 0.000E+00 0.000E+00 3.480E+02 3.467E+02
3.607E-03 1.292E+00 5.803E-02 3.821E+02 0.000E+00 0.000E+00 3.835E+02 3.822E+02
4.000E-03 1.200E+00 6.365E-02 2.888E+02 0.000E+00 0.000E+00 2.901E+02 2.889E+02
5.000E-03 1.006E+00 7.632E-02 1.552E+02 0.000E+00 0.000E+00 1.563E+02 1.552E+02
6.000E-03 8.536E-01 8.692E-02 9.255E+01 0.000E+00 0.000E+00 9.349E+01 9.263E+01
7.112E-03 7.196E-01 9.674E-02 5.678E+01 0.000E+00 0.000E+00 5.760E+01 5.688E+01
7.112E-03 7.196E-01 9.674E-02 7.166E+01 0.000E+00 0.000E+00 7.247E+01 7.175E+01
8.000E-03 6.329E-01 1.034E-01 5.155E+01 0.000E+00 0.000E+00 5.228E+01 5.165E+01
1.000E-02 4.852E-01 1.154E-01 2.721E+01 0.000E+00 0.000E+00 2.782E+01 2.733E+01
1.500E-02 2.827E-01 1.341E-01 8.310E+00 0.000E+00 0.000E+00 8.727E+00 8.444E+00
2.000E-02 1.869E-01 1.442E-01 3.517E+00 0.000E+00 0.000E+00 3.848E+00 3.661E+00
3.000E-02 1.003E-01 1.530E-01 1.024E+00 0.000E+00 0.000E+00 1.277E+00 1.177E+00
4.000E-02 6.265E-02 1.554E-01 4.209E-01 0.000E+00 0.000E+00 6.390E-01 5.763E-01
5.000E-02 4.281E-02 1.551E-01 2.098E-01 0.000E+00 0.000E+00 4.077E-01 3.648E-01
6.000E-02 3.107E-02 1.533E-01 1.184E-01 0.000E+00 0.000E+00 3.028E-01 2.717E-01
8.000E-02 1.847E-02 1.484E-01 4.776E-02 0.000E+00 0.000E+00 2.146E-01 1.961E-01
1.000E-01 1.221E-02 1.429E-01 2.357E-02 0.000E+00 0.000E+00 1.787E-01 1.664E-01
1.500E-01 5.660E-03 1.303E-01 6.544E-03 0.000E+00 0.000E+00 1.425E-01 1.368E-01
2.000E-01 3.244E-03 1.200E-01 2.663E-03 0.000E+00 0.000E+00 1.259E-01 1.226E-01
3.000E-01 1.465E-03 1.048E-01 7.781E-04 0.000E+00 0.000E+00 1.070E-01 1.056E-01
4.000E-01 8.293E-04 9.404E-02 3.394E-04 0.000E+00 0.000E+00 9.521E-02 9.438E-02
5.000E-01 5.324E-04 8.596E-02 1.850E-04 0.000E+00 0.000E+00 8.668E-02 8.615E-02
6.000E-01 3.704E-04 7.956E-02 1.160E-04 0.000E+00 0.000E+00 8.005E-02 7.968E-02
8.000E-01 2.087E-04 6.994E-02 5.888E-05 0.000E+00 0.000E+00 7.020E-02 7.000E-02
1.000E+00 1.337E-04 6.290E-02 3.661E-05 0.000E+00 0.000E+00 6.307E-02 6.294E-02
1.022E+00 1.280E-04 6.224E-02 3.461E-05 0.000E+00 0.000E+00 6.240E-02 6.227E-02
1.250E+00 8.560E-05 5.626E-02 2.344E-05 2.971E-05 0.000E+00 5.640E-02 5.631E-02
1.500E+00 5.946E-05 5.113E-02 1.694E-05 1.610E-04 0.000E+00 5.136E-02 5.131E-02
2.000E+00 3.346E-05 4.364E-02 1.052E-05 6.343E-04 0.000E+00 4.432E-02 4.429E-02
2.044E+00 3.203E-05 4.310E-02 1.017E-05 6.834E-04 0.000E+00 4.383E-02 4.379E-02
3.000E+00 1.487E-05 3.433E-02 5.769E-06 1.800E-03 1.201E-05 3.616E-02 3.615E-02
4.000E+00 8.367E-06 2.864E-02 3.913E-06 2.909E-03 4.905E-05 3.161E-02 3.160E-02
5.000E+00 5.355E-06 2.473E-02 2.943E-06 3.895E-03 9.772E-05 2.873E-02 2.873E-02
6.000E+00 3.719E-06 2.186E-02 2.352E-06 4.778E-03 1.501E-04 2.680E-02 2.679E-02
7.000E+00 2.732E-06 1.965E-02 1.957E-06 5.563E-03 2.024E-04 2.542E-02 2.542E-02
8.000E+00 2.092E-06 1.788E-02 1.673E-06 6.270E-03 2.531E-04 2.441E-02 2.441E-02
9.000E+00 1.653E-06 1.644E-02 1.461E-06 6.912E-03 3.018E-04 2.366E-02 2.365E-02
1.000E+01 1.339E-06 1.523E-02 1.296E-06 7.494E-03 3.481E-04 2.308E-02 2.307E-02
1.100E+01 1.106E-06 1.421E-02 1.164E-06 8.022E-03 3.921E-04 2.262E-02 2.262E-02
1.200E+01 9.297E-07 1.332E-02 1.056E-06 8.508E-03 4.336E-04 2.227E-02 2.227E-02
1.300E+01 7.922E-07 1.255E-02 9.669E-07 8.958E-03 4.730E-04 2.198E-02 2.198E-02
1.400E+01 6.830E-07 1.187E-02 8.913E-07 9.376E-03 5.104E-04 2.176E-02 2.176E-02
1.500E+01 5.950E-07 1.127E-02 8.267E-07 9.768E-03 5.459E-04 2.159E-02 2.159E-02
1.600E+01 5.229E-07 1.074E-02 7.707E-07 1.014E-02 5.798E-04 2.145E-02 2.145E-02
1.800E+01 4.132E-07 9.811E-03 6.786E-07 1.081E-02 6.428E-04 2.126E-02 2.126E-02
2.000E+01 3.347E-07 9.048E-03 6.062E-07 1.141E-02 7.003E-04 2.116E-02 2.116E-02
2.200E+01 2.766E-07 8.404E-03 5.477E-07 1.196E-02 7.535E-04 2.111E-02 2.111E-02
2.400E+01 2.324E-07 7.853E-03 4.995E-07 1.245E-02 8.023E-04 2.111E-02 2.111E-02
2.600E+01 1.981E-07 7.374E-03 4.590E-07 1.291E-02 8.478E-04 2.113E-02 2.113E-02
2.800E+01 1.708E-07 6.956E-03 4.246E-07 1.333E-02 8.902E-04 2.117E-02 2.117E-02
3.000E+01 1.487E-07 6.587E-03 3.950E-07 1.371E-02 9.297E-04 2.123E-02 2.123E-02
4.000E+01 8.368E-08 5.233E-03 2.929E-07 1.531E-02 1.096E-03 2.164E-02 2.164E-02
5.000E+01 5.355E-08 4.370E-03 2.327E-07 1.650E-02 1.225E-03 2.210E-02 2.210E-02
6.000E+01 3.719E-08 3.764E-03 1.930E-07 1.745E-02 1.329E-03 2.254E-02 2.254E-02
8.000E+01 2.092E-08 2.969E-03 1.439E-07 1.886E-02 1.489E-03 2.332E-02 2.332E-02
1.000E+02 1.339E-08 2.464E-03 1.147E-07 1.988E-02 1.608E-03 2.395E-02 2.395E-02
1.500E+02 5.949E-09 1.755E-03 7.611E-08 2.154E-02 1.813E-03 2.511E-02 2.511E-02
2.000E+02 3.346E-09 1.376E-03 5.695E-08 2.255E-02 1.945E-03 2.588E-02 2.588E-02
3.000E+02 1.487E-09 9.752E-04 3.788E-08 2.376E-02 2.112E-03 2.685E-02 2.685E-02
4.000E+02 8.367E-10 7.637E-04 2.837E-08 2.447E-02 2.215E-03 2.744E-02 2.744E-02
5.000E+02 5.355E-10 6.323E-04 2.269E-08 2.493E-02 2.287E-03 2.785E-02 2.785E-02
6.000E+02 3.719E-10 5.414E-04 1.889E-08 2.526E-02 2.341E-03 2.815E-02 2.815E-02
8.000E+02 2.092E-10 4.228E-04 1.416E-08 2.572E-02 2.415E-03 2.856E-02 2.856E-02
1.000E+03 1.339E-10 3.479E-04 1.133E-08 2.602E-02 2.465E-03 2.883E-02 2.883E-02
1.500E+03 5.949E-11 2.429E-04 7.547E-09 2.644E-02 2.540E-03 2.923E-02 2.923E-02
2.000E+03 3.346E-11 1.880E-04 5.659E-09 2.667E-02 2.583E-03 2.945E-02 2.945E-02
3.000E+03 1.487E-11 1.307E-04 3.771E-09 2.693E-02 2.630E-03 2.969E-02 2.969E-02
4.000E+03 8.367E-12 1.009E-04 2.828E-09 2.707E-02 2.658E-03 2.983E-02 2.983E-02
5.000E+03 5.355E-12 8.250E-05 2.262E-09 2.715E-02 2.675E-03 2.991E-02 2.991E-02
6.000E+03 3.719E-12 6.997E-05 1.885E-09 2.722E-02 2.687E-03 2.998E-02 2.998E-02
8.000E+03 2.092E-12 5.389E-05 1.414E-09 2.730E-02 2.703E-03 3.005E-02 3.005E-02
1.000E+04 1.339E-12 4.400E-05 1.131E-09 2.735E-02 2.713E-03 3.011E-02 3.011E-02
1.500E+04 5.949E-13 3.041E-05 7.541E-10 2.741E-02 2.727E-03 3.017E-02 3.017E-02
2.000E+04 3.346E-13 2.338E-05 5.655E-10 2.745E-02 2.735E-03 3.021E-02 3.021E-02
3.000E+04 1.487E-13 1.613E-05 3.770E-10 2.750E-02 2.743E-03 3.025E-02 3.025E-02
4.000E+04 8.367E-14 1.238E-05 2.828E-10 2.752E-02 2.749E-03 3.028E-02 3.028E-02
5.000E+04 5.355E-14 1.008E-05 2.262E-10 2.752E-02 2.751E-03 3.028E-02 3.028E-02
6.000E+04 3.719E-14 8.522E-06 1.885E-10 2.754E-02 2.753E-03 3.030E-02 3.030E-02
8.000E+04 2.092E-14 6.534E-06 1.414E-10 2.754E-02 2.755E-03 3.030E-02 3.030E-02
1.000E+05 1.339E-14 5.316E-06 1.131E-10 2.755E-02 2.757E-03 3.032E-02 3.032E-02
