Density

1.05

Photon    Coherent Incoher. Photoel. Nuclear  Electron Tot. w/  Tot. wo/ 
Energy    Scatter. Scatter. Absorb.  Pr. Prd. Pr. Prd. Coherent Coherent 

1.000E-03 1.331E+00 1.353E-02 3.725E+03 0.000E+00 0.000E+00 3.727E+03 3.725E+03 
1.035E-03 1.323E+00 1.439E-02 3.395E+03 0.000E+00 0.000E+00 3.396E+03 3.395E+03 
1.072E-03 1.315E+00 1.531E-02 3.094E+03 0.000E+00 0.000E+00 3.095E+03 3.094E+03 
1.072E-03 1.315E+00 1.531E-02 3.100E+03 0.000E+00 0.000E+00 3.101E+03 3.100E+03 
1.500E-03 1.225E+00 2.727E-02 1.252E+03 0.000E+00 0.000E+00 1.253E+03 1.252E+03 
2.000E-03 1.103E+00 4.249E-02 5.596E+02 0.000E+00 0.000E+00 5.608E+02 5.597E+02 
2.145E-03 1.067E+00 4.692E-02 4.582E+02 0.000E+00 0.000E+00 4.593E+02 4.582E+02 
2.145E-03 1.067E+00 4.692E-02 4.626E+02 0.000E+00 0.000E+00 4.637E+02 4.627E+02 
2.303E-03 1.028E+00 5.166E-02 3.779E+02 0.000E+00 0.000E+00 3.789E+02 3.779E+02 
2.472E-03 9.867E-01 5.666E-02 3.083E+02 0.000E+00 0.000E+00 3.093E+02 3.083E+02 
2.472E-03 9.867E-01 5.666E-02 3.120E+02 0.000E+00 0.000E+00 3.130E+02 3.120E+02 
2.641E-03 9.464E-01 6.154E-02 2.578E+02 0.000E+00 0.000E+00 2.588E+02 2.578E+02 
2.822E-03 9.047E-01 6.659E-02 2.128E+02 0.000E+00 0.000E+00 2.137E+02 2.128E+02 
2.822E-03 9.047E-01 6.659E-02 2.157E+02 0.000E+00 0.000E+00 2.167E+02 2.157E+02 
3.000E-03 8.651E-01 7.136E-02 1.808E+02 0.000E+00 0.000E+00 1.817E+02 1.809E+02 
3.607E-03 7.415E-01 8.623E-02 1.053E+02 0.000E+00 0.000E+00 1.061E+02 1.053E+02 
3.607E-03 7.415E-01 8.623E-02 1.085E+02 0.000E+00 0.000E+00 1.093E+02 1.085E+02 
4.000E-03 6.721E-01 9.466E-02 7.993E+01 0.000E+00 0.000E+00 8.069E+01 8.002E+01 
5.000E-03 5.297E-01 1.123E-01 4.109E+01 0.000E+00 0.000E+00 4.173E+01 4.121E+01 
6.000E-03 4.272E-01 1.254E-01 2.370E+01 0.000E+00 0.000E+00 2.425E+01 2.382E+01 
8.000E-03 2.973E-01 1.430E-01 9.835E+00 0.000E+00 0.000E+00 1.028E+01 9.978E+00 
1.000E-02 2.223E-01 1.539E-01 4.929E+00 0.000E+00 0.000E+00 5.305E+00 5.083E+00 
1.500E-02 1.293E-01 1.688E-01 1.378E+00 0.000E+00 0.000E+00 1.677E+00 1.547E+00 
2.000E-02 8.589E-02 1.763E-01 5.513E-01 0.000E+00 0.000E+00 8.135E-01 7.276E-01 
3.000E-02 4.543E-02 1.818E-01 1.492E-01 0.000E+00 0.000E+00 3.764E-01 3.310E-01 
4.000E-02 2.782E-02 1.816E-01 5.850E-02 0.000E+00 0.000E+00 2.679E-01 2.401E-01 
5.000E-02 1.875E-02 1.791E-01 2.820E-02 0.000E+00 0.000E+00 2.261E-01 2.073E-01 
6.000E-02 1.348E-02 1.758E-01 1.551E-02 0.000E+00 0.000E+00 2.048E-01 1.913E-01 
8.000E-02 7.904E-03 1.685E-01 6.030E-03 0.000E+00 0.000E+00 1.825E-01 1.746E-01 
1.000E-01 5.177E-03 1.615E-01 2.899E-03 0.000E+00 0.000E+00 1.695E-01 1.644E-01 
1.500E-01 2.363E-03 1.463E-01 7.722E-04 0.000E+00 0.000E+00 1.494E-01 1.471E-01 
2.000E-01 1.343E-03 1.344E-01 3.064E-04 0.000E+00 0.000E+00 1.360E-01 1.347E-01 
3.000E-01 6.017E-04 1.171E-01 8.699E-05 0.000E+00 0.000E+00 1.178E-01 1.172E-01 
4.000E-01 3.394E-04 1.050E-01 3.735E-05 0.000E+00 0.000E+00 1.054E-01 1.050E-01 
5.000E-01 2.175E-04 9.592E-02 2.017E-05 0.000E+00 0.000E+00 9.615E-02 9.594E-02 
6.000E-01 1.512E-04 8.874E-02 1.257E-05 0.000E+00 0.000E+00 8.890E-02 8.875E-02 
8.000E-01 8.510E-05 7.798E-02 6.350E-06 0.000E+00 0.000E+00 7.807E-02 7.799E-02 
1.000E+00 5.448E-05 7.013E-02 3.948E-06 0.000E+00 0.000E+00 7.019E-02 7.014E-02 
1.022E+00 5.217E-05 6.940E-02 3.686E-06 0.000E+00 0.000E+00 6.945E-02 6.940E-02 
1.250E+00 3.489E-05 6.271E-02 2.502E-06 1.733E-05 0.000E+00 6.277E-02 6.273E-02 
1.500E+00 2.422E-05 5.699E-02 1.814E-06 9.579E-05 0.000E+00 5.712E-02 5.709E-02 
2.000E+00 1.363E-05 4.865E-02 1.139E-06 3.812E-04 0.000E+00 4.904E-02 4.903E-02 
2.044E+00 1.304E-05 4.803E-02 1.101E-06 4.108E-04 0.000E+00 4.846E-02 4.845E-02 
3.000E+00 6.057E-06 3.826E-02 6.344E-07 1.090E-03 1.339E-05 3.937E-02 3.937E-02 
4.000E+00 3.407E-06 3.192E-02 4.347E-07 1.767E-03 5.466E-05 3.375E-02 3.374E-02 
5.000E+00 2.180E-06 2.757E-02 3.292E-07 2.371E-03 1.089E-04 3.005E-02 3.005E-02 
6.000E+00 1.514E-06 2.436E-02 2.644E-07 2.913E-03 1.673E-04 2.745E-02 2.744E-02 
