Density

1.06

Photon    Coherent Incoher. Photoel. Nuclear  Electron Tot. w/  Tot. wo/ 
Energy    Scatter. Scatter. Absorb.  Pr. Prd. Pr. Prd. Coherent Coherent 

1.000E-03 1.340E+00 1.342E-02 3.775E+03 0.000E+00 0.000E+00 3.776E+03 3.775E+03 
1.035E-03 1.333E+00 1.427E-02 3.440E+03 0.000E+00 0.000E+00 3.442E+03 3.440E+03 
1.072E-03 1.325E+00 1.518E-02 3.135E+03 0.000E+00 0.000E+00 3.137E+03 3.135E+03 
1.072E-03 1.325E+00 1.518E-02 3.141E+03 0.000E+00 0.000E+00 3.143E+03 3.141E+03 
1.500E-03 1.234E+00 2.706E-02 1.270E+03 0.000E+00 0.000E+00 1.271E+03 1.270E+03 
2.000E-03 1.113E+00 4.220E-02 5.678E+02 0.000E+00 0.000E+00 5.690E+02 5.679E+02 
2.145E-03 1.076E+00 4.661E-02 4.650E+02 0.000E+00 0.000E+00 4.661E+02 4.650E+02 
2.145E-03 1.076E+00 4.661E-02 4.672E+02 0.000E+00 0.000E+00 4.683E+02 4.672E+02 
2.303E-03 1.037E+00 5.133E-02 3.815E+02 0.000E+00 0.000E+00 3.826E+02 3.816E+02 
2.472E-03 9.959E-01 5.630E-02 3.112E+02 0.000E+00 0.000E+00 3.123E+02 3.113E+02 
2.472E-03 9.959E-01 5.630E-02 3.149E+02 0.000E+00 0.000E+00 3.160E+02 3.150E+02 
2.641E-03 9.554E-01 6.116E-02 2.602E+02 0.000E+00 0.000E+00 2.612E+02 2.603E+02 
2.822E-03 9.135E-01 6.620E-02 2.147E+02 0.000E+00 0.000E+00 2.157E+02 2.148E+02 
2.822E-03 9.135E-01 6.620E-02 2.191E+02 0.000E+00 0.000E+00 2.201E+02 2.192E+02 
3.000E-03 8.736E-01 7.096E-02 1.837E+02 0.000E+00 0.000E+00 1.847E+02 1.838E+02 
3.607E-03 7.492E-01 8.580E-02 1.070E+02 0.000E+00 0.000E+00 1.079E+02 1.071E+02 
3.607E-03 7.492E-01 8.580E-02 1.092E+02 0.000E+00 0.000E+00 1.100E+02 1.093E+02 
4.000E-03 6.792E-01 9.422E-02 8.042E+01 0.000E+00 0.000E+00 8.120E+01 8.052E+01 
5.000E-03 5.354E-01 1.119E-01 4.133E+01 0.000E+00 0.000E+00 4.198E+01 4.144E+01 
6.000E-03 4.319E-01 1.250E-01 2.382E+01 0.000E+00 0.000E+00 2.438E+01 2.395E+01 
7.112E-03 3.493E-01 1.359E-01 1.418E+01 0.000E+00 0.000E+00 1.467E+01 1.432E+01 
7.112E-03 3.493E-01 1.359E-01 1.454E+01 0.000E+00 0.000E+00 1.502E+01 1.467E+01 
8.000E-03 3.004E-01 1.426E-01 1.015E+01 0.000E+00 0.000E+00 1.059E+01 1.029E+01 
1.000E-02 2.245E-01 1.535E-01 5.099E+00 0.000E+00 0.000E+00 5.477E+00 5.253E+00 
1.500E-02 1.306E-01 1.685E-01 1.433E+00 0.000E+00 0.000E+00 1.732E+00 1.602E+00 
2.000E-02 8.675E-02 1.760E-01 5.753E-01 0.000E+00 0.000E+00 8.380E-01 7.513E-01 
3.000E-02 4.591E-02 1.815E-01 1.564E-01 0.000E+00 0.000E+00 3.839E-01 3.380E-01 
4.000E-02 2.812E-02 1.814E-01 6.158E-02 0.000E+00 0.000E+00 2.711E-01 2.429E-01 
5.000E-02 1.895E-02 1.789E-01 2.977E-02 0.000E+00 0.000E+00 2.276E-01 2.087E-01 
6.000E-02 1.362E-02 1.756E-01 1.641E-02 0.000E+00 0.000E+00 2.057E-01 1.920E-01 
8.000E-02 7.994E-03 1.684E-01 6.400E-03 0.000E+00 0.000E+00 1.827E-01 1.748E-01 
1.000E-01 5.237E-03 1.613E-01 3.085E-03 0.000E+00 0.000E+00 1.696E-01 1.644E-01 
1.500E-01 2.391E-03 1.461E-01 8.251E-04 0.000E+00 0.000E+00 1.494E-01 1.470E-01 
2.000E-01 1.359E-03 1.342E-01 3.283E-04 0.000E+00 0.000E+00 1.359E-01 1.346E-01 
3.000E-01 6.090E-04 1.170E-01 9.352E-05 0.000E+00 0.000E+00 1.177E-01 1.171E-01 
4.000E-01 3.435E-04 1.049E-01 4.022E-05 0.000E+00 0.000E+00 1.053E-01 1.049E-01 
5.000E-01 2.202E-04 9.583E-02 2.175E-05 0.000E+00 0.000E+00 9.607E-02 9.585E-02 
6.000E-01 1.530E-04 8.865E-02 1.357E-05 0.000E+00 0.000E+00 8.882E-02 8.867E-02 
8.000E-01 8.614E-05 7.791E-02 6.856E-06 0.000E+00 0.000E+00 7.800E-02 7.792E-02 
1.000E+00 5.515E-05 7.007E-02 4.263E-06 0.000E+00 0.000E+00 7.013E-02 7.007E-02 
1.022E+00 5.281E-05 6.933E-02 3.985E-06 0.000E+00 0.000E+00 6.939E-02 6.934E-02 
1.250E+00 3.531E-05 6.265E-02 2.704E-06 1.746E-05 0.000E+00 6.271E-02 6.267E-02 
1.500E+00 2.452E-05 5.694E-02 1.960E-06 9.645E-05 0.000E+00 5.706E-02 5.704E-02 
2.000E+00 1.379E-05 4.860E-02 1.229E-06 3.837E-04 0.000E+00 4.900E-02 4.899E-02 
2.044E+00 1.320E-05 4.799E-02 1.188E-06 4.135E-04 0.000E+00 4.842E-02 4.840E-02 
3.000E+00 6.131E-06 3.823E-02 6.833E-07 1.097E-03 1.338E-05 3.935E-02 3.934E-02 
4.000E+00 3.449E-06 3.189E-02 4.677E-07 1.779E-03 5.461E-05 3.373E-02 3.372E-02 
5.000E+00 2.207E-06 2.754E-02 3.539E-07 2.386E-03 1.088E-04 3.004E-02 3.004E-02 
6.000E+00 1.533E-06 2.434E-02 2.841E-07 2.932E-03 1.671E-04 2.744E-02 2.744E-02 
