Density

1.05

Photon    Coherent Incoher. Photoel. Nuclear  Electron Tot. w/  Tot. wo/ 
Energy    Scatter. Scatter. Absorb.  Pr. Prd. Pr. Prd. Coherent Coherent 

1.000E-03 1.316E+00 1.364E-02 3.642E+03 0.000E+00 0.000E+00 3.643E+03 3.642E+03 
1.035E-03 1.308E+00 1.451E-02 3.318E+03 0.000E+00 0.000E+00 3.320E+03 3.318E+03 
1.072E-03 1.301E+00 1.543E-02 3.023E+03 0.000E+00 0.000E+00 3.025E+03 3.024E+03 
1.072E-03 1.301E+00 1.543E-02 3.029E+03 0.000E+00 0.000E+00 3.031E+03 3.029E+03 
1.500E-03 1.210E+00 2.747E-02 1.222E+03 0.000E+00 0.000E+00 1.223E+03 1.222E+03 
2.000E-03 1.088E+00 4.275E-02 5.458E+02 0.000E+00 0.000E+00 5.469E+02 5.458E+02 
2.145E-03 1.052E+00 4.720E-02 4.467E+02 0.000E+00 0.000E+00 4.478E+02 4.468E+02 
2.145E-03 1.052E+00 4.720E-02 4.512E+02 0.000E+00 0.000E+00 4.523E+02 4.512E+02 
2.303E-03 1.013E+00 5.195E-02 3.685E+02 0.000E+00 0.000E+00 3.695E+02 3.685E+02 
2.472E-03 9.721E-01 5.695E-02 3.005E+02 0.000E+00 0.000E+00 3.016E+02 3.006E+02 
2.472E-03 9.721E-01 5.695E-02 3.043E+02 0.000E+00 0.000E+00 3.053E+02 3.043E+02 
2.641E-03 9.321E-01 6.184E-02 2.514E+02 0.000E+00 0.000E+00 2.523E+02 2.514E+02 
2.822E-03 8.907E-01 6.690E-02 2.074E+02 0.000E+00 0.000E+00 2.084E+02 2.075E+02 
2.822E-03 8.907E-01 6.690E-02 2.104E+02 0.000E+00 0.000E+00 2.113E+02 2.104E+02 
3.000E-03 8.515E-01 7.168E-02 1.763E+02 0.000E+00 0.000E+00 1.772E+02 1.764E+02 
3.607E-03 7.293E-01 8.655E-02 1.026E+02 0.000E+00 0.000E+00 1.034E+02 1.027E+02 
3.607E-03 7.293E-01 8.655E-02 1.058E+02 0.000E+00 0.000E+00 1.066E+02 1.059E+02 
4.000E-03 6.608E-01 9.495E-02 7.797E+01 0.000E+00 0.000E+00 7.873E+01 7.807E+01 
5.000E-03 5.206E-01 1.125E-01 4.008E+01 0.000E+00 0.000E+00 4.071E+01 4.019E+01 
6.000E-03 4.200E-01 1.256E-01 2.311E+01 0.000E+00 0.000E+00 2.366E+01 2.324E+01 
8.000E-03 2.926E-01 1.430E-01 9.589E+00 0.000E+00 0.000E+00 1.002E+01 9.732E+00 
1.000E-02 2.190E-01 1.538E-01 4.805E+00 0.000E+00 0.000E+00 5.177E+00 4.958E+00 
1.500E-02 1.276E-01 1.688E-01 1.343E+00 0.000E+00 0.000E+00 1.640E+00 1.512E+00 
2.000E-02 8.472E-02 1.763E-01 5.372E-01 0.000E+00 0.000E+00 7.983E-01 7.136E-01 
3.000E-02 4.478E-02 1.818E-01 1.453E-01 0.000E+00 0.000E+00 3.719E-01 3.271E-01 
4.000E-02 2.742E-02 1.815E-01 5.701E-02 0.000E+00 0.000E+00 2.659E-01 2.385E-01 
5.000E-02 1.847E-02 1.790E-01 2.748E-02 0.000E+00 0.000E+00 2.250E-01 2.065E-01 
6.000E-02 1.328E-02 1.757E-01 1.511E-02 0.000E+00 0.000E+00 2.041E-01 1.908E-01 
8.000E-02 7.786E-03 1.684E-01 5.875E-03 0.000E+00 0.000E+00 1.821E-01 1.743E-01 
1.000E-01 5.099E-03 1.613E-01 2.825E-03 0.000E+00 0.000E+00 1.693E-01 1.642E-01 
1.500E-01 2.327E-03 1.462E-01 7.524E-04 0.000E+00 0.000E+00 1.492E-01 1.469E-01 
2.000E-01 1.322E-03 1.342E-01 2.986E-04 0.000E+00 0.000E+00 1.359E-01 1.345E-01 
3.000E-01 5.923E-04 1.170E-01 8.478E-05 0.000E+00 0.000E+00 1.176E-01 1.171E-01 
4.000E-01 3.341E-04 1.049E-01 3.639E-05 0.000E+00 0.000E+00 1.053E-01 1.049E-01 
5.000E-01 2.141E-04 9.583E-02 1.965E-05 0.000E+00 0.000E+00 9.606E-02 9.585E-02 
6.000E-01 1.488E-04 8.866E-02 1.225E-05 0.000E+00 0.000E+00 8.882E-02 8.867E-02 
8.000E-01 8.378E-05 7.791E-02 6.188E-06 0.000E+00 0.000E+00 7.800E-02 7.792E-02 
1.000E+00 5.363E-05 7.007E-02 3.847E-06 0.000E+00 0.000E+00 7.013E-02 7.007E-02 
1.022E+00 5.136E-05 6.933E-02 3.592E-06 0.000E+00 0.000E+00 6.939E-02 6.934E-02 
1.250E+00 3.434E-05 6.265E-02 2.438E-06 1.716E-05 0.000E+00 6.271E-02 6.267E-02 
1.500E+00 2.384E-05 5.694E-02 1.768E-06 9.486E-05 0.000E+00 5.706E-02 5.704E-02 
2.000E+00 1.341E-05 4.860E-02 1.110E-06 3.775E-04 0.000E+00 4.899E-02 4.898E-02 
2.044E+00 1.284E-05 4.799E-02 1.073E-06 4.068E-04 0.000E+00 4.841E-02 4.840E-02 
3.000E+00 5.962E-06 3.823E-02 6.182E-07 1.079E-03 1.338E-05 3.933E-02 3.932E-02 
4.000E+00 3.354E-06 3.189E-02 4.236E-07 1.750E-03 5.461E-05 3.370E-02 3.370E-02 
5.000E+00 2.146E-06 2.754E-02 3.208E-07 2.348E-03 1.088E-04 3.000E-02 3.000E-02 
6.000E+00 1.491E-06 2.434E-02 2.576E-07 2.885E-03 1.671E-04 2.740E-02 2.739E-02 
