Density

1.05

Photon    Coherent Incoher. Photoel. Nuclear  Electron Tot. w/  Tot. wo/ 
Energy    Scatter. Scatter. Absorb.  Pr. Prd. Pr. Prd. Coherent Coherent 

1.000E-03 1.346E+00 1.338E-02 3.814E+03 0.000E+00 0.000E+00 3.815E+03 3.814E+03 
1.035E-03 1.339E+00 1.423E-02 3.476E+03 0.000E+00 0.000E+00 3.477E+03 3.476E+03 
1.072E-03 1.331E+00 1.514E-02 3.168E+03 0.000E+00 0.000E+00 3.169E+03 3.168E+03 
1.072E-03 1.331E+00 1.514E-02 3.174E+03 0.000E+00 0.000E+00 3.175E+03 3.174E+03 
1.500E-03 1.241E+00 2.700E-02 1.284E+03 0.000E+00 0.000E+00 1.285E+03 1.284E+03 
2.000E-03 1.119E+00 4.211E-02 5.742E+02 0.000E+00 0.000E+00 5.753E+02 5.742E+02 
2.145E-03 1.083E+00 4.652E-02 4.702E+02 0.000E+00 0.000E+00 4.713E+02 4.702E+02 
2.145E-03 1.083E+00 4.652E-02 4.746E+02 0.000E+00 0.000E+00 4.758E+02 4.747E+02 
2.303E-03 1.043E+00 5.124E-02 3.877E+02 0.000E+00 0.000E+00 3.888E+02 3.878E+02 
2.472E-03 1.002E+00 5.621E-02 3.164E+02 0.000E+00 0.000E+00 3.174E+02 3.164E+02 
2.472E-03 1.002E+00 5.621E-02 3.201E+02 0.000E+00 0.000E+00 3.211E+02 3.201E+02 
2.641E-03 9.616E-01 6.107E-02 2.645E+02 0.000E+00 0.000E+00 2.655E+02 2.646E+02 
2.822E-03 9.195E-01 6.611E-02 2.183E+02 0.000E+00 0.000E+00 2.193E+02 2.184E+02 
2.822E-03 9.195E-01 6.611E-02 2.213E+02 0.000E+00 0.000E+00 2.222E+02 2.213E+02 
3.000E-03 8.795E-01 7.087E-02 1.855E+02 0.000E+00 0.000E+00 1.864E+02 1.855E+02 
3.607E-03 7.545E-01 8.573E-02 1.080E+02 0.000E+00 0.000E+00 1.089E+02 1.081E+02 
3.607E-03 7.545E-01 8.573E-02 1.112E+02 0.000E+00 0.000E+00 1.121E+02 1.113E+02 
4.000E-03 6.841E-01 9.415E-02 8.197E+01 0.000E+00 0.000E+00 8.275E+01 8.206E+01 
5.000E-03 5.392E-01 1.118E-01 4.215E+01 0.000E+00 0.000E+00 4.280E+01 4.226E+01 
6.000E-03 4.349E-01 1.251E-01 2.431E+01 0.000E+00 0.000E+00 2.487E+01 2.444E+01 
8.000E-03 3.023E-01 1.427E-01 1.009E+01 0.000E+00 0.000E+00 1.054E+01 1.023E+01 
1.000E-02 2.258E-01 1.536E-01 5.058E+00 0.000E+00 0.000E+00 5.438E+00 5.212E+00 
1.500E-02 1.312E-01 1.686E-01 1.415E+00 0.000E+00 0.000E+00 1.715E+00 1.584E+00 
2.000E-02 8.716E-02 1.761E-01 5.660E-01 0.000E+00 0.000E+00 8.293E-01 7.421E-01 
3.000E-02 4.612E-02 1.817E-01 1.531E-01 0.000E+00 0.000E+00 3.809E-01 3.348E-01 
4.000E-02 2.825E-02 1.815E-01 6.007E-02 0.000E+00 0.000E+00 2.698E-01 2.416E-01 
5.000E-02 1.904E-02 1.791E-01 2.896E-02 0.000E+00 0.000E+00 2.271E-01 2.080E-01 
6.000E-02 1.369E-02 1.758E-01 1.592E-02 0.000E+00 0.000E+00 2.054E-01 1.917E-01 
8.000E-02 8.031E-03 1.685E-01 6.191E-03 0.000E+00 0.000E+00 1.827E-01 1.747E-01 
1.000E-01 5.262E-03 1.614E-01 2.976E-03 0.000E+00 0.000E+00 1.697E-01 1.644E-01 
1.500E-01 2.402E-03 1.463E-01 7.927E-04 0.000E+00 0.000E+00 1.495E-01 1.471E-01 
2.000E-01 1.365E-03 1.344E-01 3.145E-04 0.000E+00 0.000E+00 1.360E-01 1.347E-01 
3.000E-01 6.117E-04 1.171E-01 8.930E-05 0.000E+00 0.000E+00 1.178E-01 1.172E-01 
4.000E-01 3.451E-04 1.050E-01 3.834E-05 0.000E+00 0.000E+00 1.054E-01 1.050E-01 
5.000E-01 2.211E-04 9.592E-02 2.070E-05 0.000E+00 0.000E+00 9.616E-02 9.594E-02 
6.000E-01 1.537E-04 8.874E-02 1.290E-05 0.000E+00 0.000E+00 8.890E-02 8.875E-02 
8.000E-01 8.652E-05 7.798E-02 6.518E-06 0.000E+00 0.000E+00 7.808E-02 7.799E-02 
1.000E+00 5.539E-05 7.014E-02 4.052E-06 0.000E+00 0.000E+00 7.020E-02 7.014E-02 
1.022E+00 5.304E-05 6.940E-02 3.784E-06 0.000E+00 0.000E+00 6.945E-02 6.940E-02 
1.250E+00 3.547E-05 6.271E-02 2.568E-06 1.752E-05 0.000E+00 6.277E-02 6.273E-02 
1.500E+00 2.462E-05 5.700E-02 1.862E-06 9.680E-05 0.000E+00 5.712E-02 5.709E-02 
2.000E+00 1.385E-05 4.865E-02 1.169E-06 3.852E-04 0.000E+00 4.905E-02 4.904E-02 
2.044E+00 1.326E-05 4.804E-02 1.131E-06 4.151E-04 0.000E+00 4.846E-02 4.845E-02 
3.000E+00 6.158E-06 3.827E-02 6.513E-07 1.101E-03 1.339E-05 3.939E-02 3.938E-02 
4.000E+00 3.464E-06 3.192E-02 4.463E-07 1.785E-03 5.466E-05 3.377E-02 3.376E-02 
5.000E+00 2.217E-06 2.757E-02 3.379E-07 2.395E-03 1.089E-04 3.007E-02 3.007E-02 
6.000E+00 1.539E-06 2.436E-02 2.715E-07 2.943E-03 1.673E-04 2.748E-02 2.748E-02 
