Density

1.12

Photon    Coherent Incoher. Photoel. Nuclear  Electron Tot. w/  Tot. wo/ 
Energy    Scatter. Scatter. Absorb.  Pr. Prd. Pr. Prd. Coherent Coherent 

1.000E-03 1.349E+00 1.455E-02 2.405E+03 0.000E+00 0.000E+00 2.406E+03 2.405E+03 
1.500E-03 1.219E+00 2.888E-02 7.833E+02 0.000E+00 0.000E+00 7.845E+02 7.833E+02 
2.000E-03 1.079E+00 4.430E-02 3.450E+02 0.000E+00 0.000E+00 3.461E+02 3.450E+02 
2.822E-03 8.659E-01 6.792E-02 1.265E+02 0.000E+00 0.000E+00 1.275E+02 1.266E+02 
2.822E-03 8.659E-01 6.792E-02 3.337E+02 0.000E+00 0.000E+00 3.347E+02 3.338E+02 
3.000E-03 8.262E-01 7.251E-02 2.935E+02 0.000E+00 0.000E+00 2.944E+02 2.936E+02 
4.000E-03 6.416E-01 9.435E-02 1.351E+02 0.000E+00 0.000E+00 1.359E+02 1.352E+02 
5.000E-03 5.146E-01 1.102E-01 7.306E+01 0.000E+00 0.000E+00 7.369E+01 7.317E+01 
6.000E-03 4.261E-01 1.216E-01 4.382E+01 0.000E+00 0.000E+00 4.437E+01 4.394E+01 
8.000E-03 3.137E-01 1.370E-01 1.923E+01 0.000E+00 0.000E+00 1.968E+01 1.937E+01 
1.000E-02 2.445E-01 1.472E-01 1.003E+01 0.000E+00 0.000E+00 1.043E+01 1.018E+01 
1.500E-02 1.468E-01 1.627E-01 3.003E+00 0.000E+00 0.000E+00 3.312E+00 3.165E+00 
2.000E-02 9.699E-02 1.708E-01 1.254E+00 0.000E+00 0.000E+00 1.522E+00 1.425E+00 
3.000E-02 5.116E-02 1.764E-01 3.589E-01 0.000E+00 0.000E+00 5.864E-01 5.353E-01 
4.000E-02 3.166E-02 1.761E-01 1.458E-01 0.000E+00 0.000E+00 3.535E-01 3.219E-01 
5.000E-02 2.152E-02 1.738E-01 7.207E-02 0.000E+00 0.000E+00 2.674E-01 2.458E-01 
6.000E-02 1.556E-02 1.706E-01 4.039E-02 0.000E+00 0.000E+00 2.265E-01 2.110E-01 
8.000E-02 9.180E-03 1.636E-01 1.614E-02 0.000E+00 0.000E+00 1.889E-01 1.797E-01 
1.000E-01 6.034E-03 1.568E-01 7.909E-03 0.000E+00 0.000E+00 1.707E-01 1.647E-01 
1.500E-01 2.773E-03 1.421E-01 2.172E-03 0.000E+00 0.000E+00 1.470E-01 1.443E-01 
2.000E-01 1.583E-03 1.306E-01 8.776E-04 0.000E+00 0.000E+00 1.330E-01 1.314E-01 
3.000E-01 7.126E-04 1.138E-01 2.540E-04 0.000E+00 0.000E+00 1.148E-01 1.141E-01 
4.000E-01 4.027E-04 1.021E-01 1.103E-04 0.000E+00 0.000E+00 1.026E-01 1.022E-01 
5.000E-01 2.584E-04 9.325E-02 5.991E-05 0.000E+00 0.000E+00 9.357E-02 9.331E-02 
6.000E-01 1.797E-04 8.627E-02 3.749E-05 0.000E+00 0.000E+00 8.649E-02 8.631E-02 
8.000E-01 1.012E-04 7.580E-02 1.899E-05 0.000E+00 0.000E+00 7.592E-02 7.582E-02 
1.000E+00 6.479E-05 6.817E-02 1.181E-05 0.000E+00 0.000E+00 6.825E-02 6.818E-02 
1.022E+00 6.203E-05 6.747E-02 1.114E-05 0.000E+00 0.000E+00 6.754E-02 6.748E-02 
1.250E+00 4.149E-05 6.096E-02 7.548E-06 1.820E-05 0.000E+00 6.103E-02 6.099E-02 
1.500E+00 2.881E-05 5.542E-02 5.461E-06 9.986E-05 0.000E+00 5.555E-02 5.553E-02 
2.000E+00 1.621E-05 4.729E-02 3.400E-06 3.956E-04 0.000E+00 4.770E-02 4.768E-02 
2.044E+00 1.552E-05 4.670E-02 3.286E-06 4.264E-04 0.000E+00 4.715E-02 4.713E-02 
3.000E+00 7.205E-06 3.720E-02 1.873E-06 1.128E-03 1.302E-05 3.835E-02 3.834E-02 
4.000E+00 4.054E-06 3.103E-02 1.274E-06 1.827E-03 5.314E-05 3.292E-02 3.291E-02 
5.000E+00 2.595E-06 2.680E-02 9.601E-07 2.449E-03 1.059E-04 2.936E-02 2.936E-02 
6.000E+00 1.802E-06 2.369E-02 7.684E-07 3.007E-03 1.626E-04 2.686E-02 2.686E-02 
