Density

1.05

Photon    Coherent Incoher. Photoel. Nuclear  Electron Tot. w/  Tot. wo/ 
Energy    Scatter. Scatter. Absorb.  Pr. Prd. Pr. Prd. Coherent Coherent 

1.000E-03 1.324E+00 1.355E-02 3.675E+03 0.000E+00 0.000E+00 3.676E+03 3.675E+03 
1.035E-03 1.316E+00 1.441E-02 3.349E+03 0.000E+00 0.000E+00 3.350E+03 3.349E+03 
1.072E-03 1.308E+00 1.533E-02 3.051E+03 0.000E+00 0.000E+00 3.053E+03 3.051E+03 
1.072E-03 1.308E+00 1.533E-02 3.063E+03 0.000E+00 0.000E+00 3.065E+03 3.063E+03 
1.500E-03 1.217E+00 2.730E-02 1.237E+03 0.000E+00 0.000E+00 1.238E+03 1.237E+03 
2.000E-03 1.095E+00 4.250E-02 5.527E+02 0.000E+00 0.000E+00 5.538E+02 5.527E+02 
2.145E-03 1.059E+00 4.693E-02 4.524E+02 0.000E+00 0.000E+00 4.535E+02 4.525E+02 
2.145E-03 1.059E+00 4.693E-02 4.569E+02 0.000E+00 0.000E+00 4.580E+02 4.569E+02 
2.303E-03 1.020E+00 5.166E-02 3.731E+02 0.000E+00 0.000E+00 3.742E+02 3.732E+02 
2.472E-03 9.792E-01 5.665E-02 3.044E+02 0.000E+00 0.000E+00 3.054E+02 3.044E+02 
2.472E-03 9.792E-01 5.665E-02 3.081E+02 0.000E+00 0.000E+00 3.091E+02 3.082E+02 
2.641E-03 9.391E-01 6.152E-02 2.546E+02 0.000E+00 0.000E+00 2.556E+02 2.546E+02 
2.822E-03 8.975E-01 6.656E-02 2.101E+02 0.000E+00 0.000E+00 2.111E+02 2.102E+02 
2.822E-03 8.975E-01 6.656E-02 2.130E+02 0.000E+00 0.000E+00 2.140E+02 2.131E+02 
3.000E-03 8.581E-01 7.132E-02 1.785E+02 0.000E+00 0.000E+00 1.795E+02 1.786E+02 
3.607E-03 7.353E-01 8.616E-02 1.039E+02 0.000E+00 0.000E+00 1.048E+02 1.040E+02 
3.607E-03 7.353E-01 8.616E-02 1.061E+02 0.000E+00 0.000E+00 1.069E+02 1.062E+02 
4.000E-03 6.664E-01 9.455E-02 7.813E+01 0.000E+00 0.000E+00 7.889E+01 7.822E+01 
4.038E-03 6.601E-01 9.532E-02 7.596E+01 0.000E+00 0.000E+00 7.671E+01 7.605E+01 
4.038E-03 6.601E-01 9.532E-02 7.686E+01 0.000E+00 0.000E+00 7.762E+01 7.696E+01 
5.000E-03 5.251E-01 1.121E-01 4.066E+01 0.000E+00 0.000E+00 4.130E+01 4.077E+01 
6.000E-03 4.236E-01 1.252E-01 2.345E+01 0.000E+00 0.000E+00 2.400E+01 2.358E+01 
8.000E-03 2.950E-01 1.427E-01 9.736E+00 0.000E+00 0.000E+00 1.017E+01 9.878E+00 
1.000E-02 2.208E-01 1.535E-01 4.880E+00 0.000E+00 0.000E+00 5.254E+00 5.034E+00 
1.500E-02 1.286E-01 1.685E-01 1.365E+00 0.000E+00 0.000E+00 1.662E+00 1.534E+00 
2.000E-02 8.536E-02 1.760E-01 5.463E-01 0.000E+00 0.000E+00 8.077E-01 7.223E-01 
3.000E-02 4.513E-02 1.815E-01 1.479E-01 0.000E+00 0.000E+00 3.745E-01 3.294E-01 
4.000E-02 2.764E-02 1.813E-01 5.803E-02 0.000E+00 0.000E+00 2.670E-01 2.393E-01 
5.000E-02 1.862E-02 1.788E-01 2.798E-02 0.000E+00 0.000E+00 2.254E-01 2.068E-01 
6.000E-02 1.339E-02 1.755E-01 1.539E-02 0.000E+00 0.000E+00 2.043E-01 1.909E-01 
8.000E-02 7.850E-03 1.682E-01 5.986E-03 0.000E+00 0.000E+00 1.821E-01 1.742E-01 
1.000E-01 5.142E-03 1.612E-01 2.879E-03 0.000E+00 0.000E+00 1.692E-01 1.640E-01 
1.500E-01 2.347E-03 1.460E-01 7.671E-04 0.000E+00 0.000E+00 1.491E-01 1.468E-01 
2.000E-01 1.334E-03 1.341E-01 3.045E-04 0.000E+00 0.000E+00 1.358E-01 1.344E-01 
3.000E-01 5.974E-04 1.169E-01 8.648E-05 0.000E+00 0.000E+00 1.175E-01 1.169E-01 
4.000E-01 3.370E-04 1.048E-01 3.713E-05 0.000E+00 0.000E+00 1.052E-01 1.048E-01 
5.000E-01 2.160E-04 9.574E-02 2.005E-05 0.000E+00 0.000E+00 9.598E-02 9.576E-02 
6.000E-01 1.501E-04 8.858E-02 1.250E-05 0.000E+00 0.000E+00 8.874E-02 8.859E-02 
8.000E-01 8.450E-05 7.784E-02 6.315E-06 0.000E+00 0.000E+00 7.793E-02 7.785E-02 
1.000E+00 5.410E-05 7.001E-02 3.926E-06 0.000E+00 0.000E+00 7.006E-02 7.001E-02 
1.022E+00 5.180E-05 6.927E-02 3.667E-06 0.000E+00 0.000E+00 6.933E-02 6.927E-02 
1.250E+00 3.464E-05 6.260E-02 2.488E-06 1.725E-05 0.000E+00 6.265E-02 6.262E-02 
1.500E+00 2.405E-05 5.689E-02 1.804E-06 9.537E-05 0.000E+00 5.701E-02 5.699E-02 
2.000E+00 1.353E-05 4.856E-02 1.132E-06 3.795E-04 0.000E+00 4.895E-02 4.894E-02 
2.044E+00 1.295E-05 4.795E-02 1.095E-06 4.090E-04 0.000E+00 4.837E-02 4.836E-02 
3.000E+00 6.014E-06 3.820E-02 6.308E-07 1.085E-03 1.336E-05 3.930E-02 3.929E-02 
4.000E+00 3.383E-06 3.186E-02 4.321E-07 1.759E-03 5.456E-05 3.368E-02 3.368E-02 
5.000E+00 2.165E-06 2.752E-02 3.272E-07 2.360E-03 1.087E-04 2.999E-02 2.998E-02 
6.000E+00 1.503E-06 2.432E-02 2.628E-07 2.900E-03 1.670E-04 2.739E-02 2.739E-02 
