Density

1.05

Photon    Coherent Incoher. Photoel. Nuclear  Electron Tot. w/  Tot. wo/ 
Energy    Scatter. Scatter. Absorb.  Pr. Prd. Pr. Prd. Coherent Coherent 

1.000E-03 1.335E+00 1.347E-02 3.742E+03 0.000E+00 0.000E+00 3.744E+03 3.742E+03 
1.035E-03 1.328E+00 1.433E-02 3.410E+03 0.000E+00 0.000E+00 3.412E+03 3.410E+03 
1.072E-03 1.320E+00 1.524E-02 3.108E+03 0.000E+00 0.000E+00 3.109E+03 3.108E+03 
1.072E-03 1.320E+00 1.524E-02 3.120E+03 0.000E+00 0.000E+00 3.121E+03 3.120E+03 
1.500E-03 1.229E+00 2.715E-02 1.261E+03 0.000E+00 0.000E+00 1.262E+03 1.261E+03 
2.000E-03 1.107E+00 4.231E-02 5.638E+02 0.000E+00 0.000E+00 5.650E+02 5.639E+02 
2.145E-03 1.071E+00 4.673E-02 4.616E+02 0.000E+00 0.000E+00 4.628E+02 4.617E+02 
2.145E-03 1.071E+00 4.673E-02 4.661E+02 0.000E+00 0.000E+00 4.672E+02 4.661E+02 
2.303E-03 1.032E+00 5.145E-02 3.807E+02 0.000E+00 0.000E+00 3.818E+02 3.808E+02 
2.472E-03 9.908E-01 5.643E-02 3.106E+02 0.000E+00 0.000E+00 3.117E+02 3.107E+02 
2.472E-03 9.908E-01 5.643E-02 3.143E+02 0.000E+00 0.000E+00 3.154E+02 3.144E+02 
2.641E-03 9.505E-01 6.129E-02 2.597E+02 0.000E+00 0.000E+00 2.607E+02 2.598E+02 
2.822E-03 9.086E-01 6.633E-02 2.144E+02 0.000E+00 0.000E+00 2.154E+02 2.145E+02 
2.822E-03 9.086E-01 6.633E-02 2.173E+02 0.000E+00 0.000E+00 2.183E+02 2.174E+02 
3.000E-03 8.690E-01 7.110E-02 1.821E+02 0.000E+00 0.000E+00 1.831E+02 1.822E+02 
3.607E-03 7.451E-01 8.594E-02 1.061E+02 0.000E+00 0.000E+00 1.069E+02 1.062E+02 
3.607E-03 7.451E-01 8.594E-02 1.082E+02 0.000E+00 0.000E+00 1.090E+02 1.083E+02 
4.000E-03 6.754E-01 9.435E-02 7.970E+01 0.000E+00 0.000E+00 8.047E+01 7.980E+01 
4.038E-03 6.691E-01 9.511E-02 7.749E+01 0.000E+00 0.000E+00 7.825E+01 7.758E+01 
4.038E-03 6.691E-01 9.511E-02 7.839E+01 0.000E+00 0.000E+00 7.916E+01 7.849E+01 
5.000E-03 5.324E-01 1.120E-01 4.148E+01 0.000E+00 0.000E+00 4.212E+01 4.159E+01 
6.000E-03 4.294E-01 1.251E-01 2.393E+01 0.000E+00 0.000E+00 2.448E+01 2.405E+01 
8.000E-03 2.988E-01 1.427E-01 9.934E+00 0.000E+00 0.000E+00 1.038E+01 1.008E+01 
1.000E-02 2.234E-01 1.536E-01 4.980E+00 0.000E+00 0.000E+00 5.357E+00 5.134E+00 
1.500E-02 1.299E-01 1.685E-01 1.394E+00 0.000E+00 0.000E+00 1.692E+00 1.562E+00 
2.000E-02 8.630E-02 1.761E-01 5.577E-01 0.000E+00 0.000E+00 8.201E-01 7.338E-01 
3.000E-02 4.565E-02 1.816E-01 1.510E-01 0.000E+00 0.000E+00 3.782E-01 3.326E-01 
4.000E-02 2.796E-02 1.814E-01 5.924E-02 0.000E+00 0.000E+00 2.686E-01 2.406E-01 
5.000E-02 1.884E-02 1.789E-01 2.857E-02 0.000E+00 0.000E+00 2.264E-01 2.075E-01 
6.000E-02 1.354E-02 1.756E-01 1.571E-02 0.000E+00 0.000E+00 2.049E-01 1.914E-01 
8.000E-02 7.945E-03 1.684E-01 6.111E-03 0.000E+00 0.000E+00 1.824E-01 1.745E-01 
1.000E-01 5.205E-03 1.613E-01 2.939E-03 0.000E+00 0.000E+00 1.694E-01 1.642E-01 
1.500E-01 2.376E-03 1.461E-01 7.831E-04 0.000E+00 0.000E+00 1.493E-01 1.469E-01 
2.000E-01 1.350E-03 1.342E-01 3.108E-04 0.000E+00 0.000E+00 1.359E-01 1.345E-01 
3.000E-01 6.049E-04 1.170E-01 8.827E-05 0.000E+00 0.000E+00 1.177E-01 1.171E-01 
4.000E-01 3.412E-04 1.049E-01 3.790E-05 0.000E+00 0.000E+00 1.053E-01 1.049E-01 
5.000E-01 2.187E-04 9.583E-02 2.047E-05 0.000E+00 0.000E+00 9.607E-02 9.585E-02 
6.000E-01 1.520E-04 8.866E-02 1.276E-05 0.000E+00 0.000E+00 8.882E-02 8.867E-02 
8.000E-01 8.556E-05 7.791E-02 6.446E-06 0.000E+00 0.000E+00 7.800E-02 7.792E-02 
1.000E+00 5.477E-05 7.007E-02 4.007E-06 0.000E+00 0.000E+00 7.013E-02 7.008E-02 
1.022E+00 5.245E-05 6.933E-02 3.743E-06 0.000E+00 0.000E+00 6.939E-02 6.934E-02 
1.250E+00 3.507E-05 6.266E-02 2.540E-06 1.739E-05 0.000E+00 6.271E-02 6.268E-02 
1.500E+00 2.435E-05 5.694E-02 1.842E-06 9.611E-05 0.000E+00 5.707E-02 5.704E-02 
2.000E+00 1.370E-05 4.860E-02 1.156E-06 3.824E-04 0.000E+00 4.900E-02 4.899E-02 
2.044E+00 1.311E-05 4.799E-02 1.118E-06 4.121E-04 0.000E+00 4.842E-02 4.840E-02 
3.000E+00 6.089E-06 3.823E-02 6.439E-07 1.093E-03 1.338E-05 3.934E-02 3.934E-02 
4.000E+00 3.426E-06 3.189E-02 4.411E-07 1.773E-03 5.461E-05 3.372E-02 3.372E-02 
5.000E+00 2.192E-06 2.754E-02 3.340E-07 2.378E-03 1.088E-04 3.003E-02 3.003E-02 
6.000E+00 1.522E-06 2.434E-02 2.683E-07 2.922E-03 1.671E-04 2.743E-02 2.743E-02 
