Density

1.07

Photon    Coherent Incoher. Photoel. Nuclear  Electron Tot. w/  Tot. wo/ 
Energy    Scatter. Scatter. Absorb.  Pr. Prd. Pr. Prd. Coherent Coherent 

1.000E-03 1.342E+00 1.337E-02 3.756E+03 0.000E+00 0.000E+00 3.758E+03 3.756E+03 
1.035E-03 1.334E+00 1.422E-02 3.423E+03 0.000E+00 0.000E+00 3.425E+03 3.423E+03 
1.072E-03 1.326E+00 1.513E-02 3.120E+03 0.000E+00 0.000E+00 3.121E+03 3.120E+03 
1.072E-03 1.326E+00 1.513E-02 3.131E+03 0.000E+00 0.000E+00 3.133E+03 3.131E+03 
1.500E-03 1.235E+00 2.696E-02 1.266E+03 0.000E+00 0.000E+00 1.267E+03 1.266E+03 
2.000E-03 1.113E+00 4.203E-02 5.661E+02 0.000E+00 0.000E+00 5.672E+02 5.661E+02 
2.145E-03 1.077E+00 4.642E-02 4.635E+02 0.000E+00 0.000E+00 4.646E+02 4.635E+02 
2.145E-03 1.077E+00 4.642E-02 4.702E+02 0.000E+00 0.000E+00 4.713E+02 4.702E+02 
2.303E-03 1.038E+00 5.112E-02 3.841E+02 0.000E+00 0.000E+00 3.852E+02 3.842E+02 
2.472E-03 9.963E-01 5.607E-02 3.135E+02 0.000E+00 0.000E+00 3.145E+02 3.135E+02 
2.472E-03 9.963E-01 5.607E-02 3.190E+02 0.000E+00 0.000E+00 3.201E+02 3.191E+02 
2.641E-03 9.558E-01 6.092E-02 2.637E+02 0.000E+00 0.000E+00 2.648E+02 2.638E+02 
2.822E-03 9.138E-01 6.593E-02 2.178E+02 0.000E+00 0.000E+00 2.188E+02 2.179E+02 
2.822E-03 9.138E-01 6.593E-02 2.207E+02 0.000E+00 0.000E+00 2.217E+02 2.208E+02 
3.000E-03 8.739E-01 7.068E-02 1.851E+02 0.000E+00 0.000E+00 1.860E+02 1.852E+02 
3.607E-03 7.495E-01 8.546E-02 1.079E+02 0.000E+00 0.000E+00 1.087E+02 1.080E+02 
3.607E-03 7.495E-01 8.546E-02 1.111E+02 0.000E+00 0.000E+00 1.119E+02 1.112E+02 
4.000E-03 6.795E-01 9.385E-02 8.190E+01 0.000E+00 0.000E+00 8.267E+01 8.199E+01 
5.000E-03 5.358E-01 1.114E-01 4.215E+01 0.000E+00 0.000E+00 4.280E+01 4.226E+01 
6.000E-03 4.324E-01 1.246E-01 2.433E+01 0.000E+00 0.000E+00 2.488E+01 2.445E+01 
8.000E-03 3.009E-01 1.422E-01 1.011E+01 0.000E+00 0.000E+00 1.055E+01 1.025E+01 
1.000E-02 2.251E-01 1.530E-01 5.070E+00 0.000E+00 0.000E+00 5.448E+00 5.223E+00 
1.500E-02 1.309E-01 1.680E-01 1.420E+00 0.000E+00 0.000E+00 1.719E+00 1.588E+00 
2.000E-02 8.693E-02 1.756E-01 5.685E-01 0.000E+00 0.000E+00 8.311E-01 7.441E-01 
3.000E-02 4.599E-02 1.811E-01 1.540E-01 0.000E+00 0.000E+00 3.812E-01 3.352E-01 
4.000E-02 2.818E-02 1.810E-01 6.046E-02 0.000E+00 0.000E+00 2.696E-01 2.414E-01 
5.000E-02 1.899E-02 1.786E-01 2.917E-02 0.000E+00 0.000E+00 2.267E-01 2.077E-01 
6.000E-02 1.365E-02 1.753E-01 1.605E-02 0.000E+00 0.000E+00 2.050E-01 1.913E-01 
8.000E-02 8.009E-03 1.680E-01 6.242E-03 0.000E+00 0.000E+00 1.823E-01 1.743E-01 
1.000E-01 5.247E-03 1.610E-01 3.002E-03 0.000E+00 0.000E+00 1.692E-01 1.640E-01 
1.500E-01 2.395E-03 1.459E-01 8.003E-04 0.000E+00 0.000E+00 1.491E-01 1.467E-01 
2.000E-01 1.362E-03 1.340E-01 3.177E-04 0.000E+00 0.000E+00 1.357E-01 1.343E-01 
3.000E-01 6.100E-04 1.167E-01 9.025E-05 0.000E+00 0.000E+00 1.174E-01 1.168E-01 
4.000E-01 3.441E-04 1.047E-01 3.875E-05 0.000E+00 0.000E+00 1.051E-01 1.047E-01 
5.000E-01 2.205E-04 9.565E-02 2.093E-05 0.000E+00 0.000E+00 9.589E-02 9.567E-02 
6.000E-01 1.533E-04 8.849E-02 1.305E-05 0.000E+00 0.000E+00 8.866E-02 8.851E-02 
8.000E-01 8.629E-05 7.777E-02 6.592E-06 0.000E+00 0.000E+00 7.786E-02 7.777E-02 
1.000E+00 5.524E-05 6.994E-02 4.098E-06 0.000E+00 0.000E+00 7.000E-02 6.995E-02 
1.022E+00 5.289E-05 6.921E-02 3.828E-06 0.000E+00 0.000E+00 6.926E-02 6.921E-02 
1.250E+00 3.537E-05 6.254E-02 2.598E-06 1.748E-05 0.000E+00 6.260E-02 6.256E-02 
1.500E+00 2.456E-05 5.684E-02 1.884E-06 9.657E-05 0.000E+00 5.696E-02 5.694E-02 
2.000E+00 1.382E-05 4.851E-02 1.182E-06 3.843E-04 0.000E+00 4.891E-02 4.890E-02 
2.044E+00 1.323E-05 4.790E-02 1.143E-06 4.141E-04 0.000E+00 4.833E-02 4.832E-02 
3.000E+00 6.141E-06 3.816E-02 6.584E-07 1.098E-03 1.335E-05 3.928E-02 3.927E-02 
4.000E+00 3.455E-06 3.183E-02 4.510E-07 1.781E-03 5.451E-05 3.367E-02 3.367E-02 
5.000E+00 2.211E-06 2.749E-02 3.415E-07 2.390E-03 1.086E-04 2.999E-02 2.999E-02 
6.000E+00 1.535E-06 2.430E-02 2.743E-07 2.936E-03 1.668E-04 2.740E-02 2.740E-02 
