Density

1.05

Photon    Coherent Incoher. Photoel. Nuclear  Electron Tot. w/  Tot. wo/ 
Energy    Scatter. Scatter. Absorb.  Pr. Prd. Pr. Prd. Coherent Coherent 

1.000E-03 1.328E+00 1.356E-02 3.683E+03 0.000E+00 0.000E+00 3.685E+03 3.683E+03 
1.035E-03 1.320E+00 1.442E-02 3.356E+03 0.000E+00 0.000E+00 3.358E+03 3.356E+03 
1.072E-03 1.312E+00 1.534E-02 3.058E+03 0.000E+00 0.000E+00 3.060E+03 3.058E+03 
1.072E-03 1.312E+00 1.534E-02 3.070E+03 0.000E+00 0.000E+00 3.072E+03 3.070E+03 
1.500E-03 1.221E+00 2.732E-02 1.240E+03 0.000E+00 0.000E+00 1.241E+03 1.240E+03 
2.000E-03 1.100E+00 4.253E-02 5.542E+02 0.000E+00 0.000E+00 5.554E+02 5.543E+02 
2.145E-03 1.063E+00 4.696E-02 4.537E+02 0.000E+00 0.000E+00 4.548E+02 4.538E+02 
2.145E-03 1.063E+00 4.696E-02 4.604E+02 0.000E+00 0.000E+00 4.615E+02 4.604E+02 
2.303E-03 1.024E+00 5.170E-02 3.761E+02 0.000E+00 0.000E+00 3.772E+02 3.762E+02 
2.472E-03 9.832E-01 5.669E-02 3.069E+02 0.000E+00 0.000E+00 3.079E+02 3.070E+02 
2.472E-03 9.832E-01 5.669E-02 3.125E+02 0.000E+00 0.000E+00 3.135E+02 3.125E+02 
2.641E-03 9.430E-01 6.156E-02 2.583E+02 0.000E+00 0.000E+00 2.593E+02 2.584E+02 
2.822E-03 9.013E-01 6.660E-02 2.133E+02 0.000E+00 0.000E+00 2.143E+02 2.134E+02 
2.822E-03 9.013E-01 6.660E-02 2.162E+02 0.000E+00 0.000E+00 2.172E+02 2.163E+02 
3.000E-03 8.618E-01 7.137E-02 1.813E+02 0.000E+00 0.000E+00 1.822E+02 1.814E+02 
3.607E-03 7.386E-01 8.622E-02 1.057E+02 0.000E+00 0.000E+00 1.065E+02 1.057E+02 
3.607E-03 7.386E-01 8.622E-02 1.089E+02 0.000E+00 0.000E+00 1.097E+02 1.089E+02 
4.000E-03 6.695E-01 9.462E-02 8.025E+01 0.000E+00 0.000E+00 8.101E+01 8.034E+01 
5.000E-03 5.278E-01 1.122E-01 4.130E+01 0.000E+00 0.000E+00 4.194E+01 4.141E+01 
6.000E-03 4.260E-01 1.253E-01 2.383E+01 0.000E+00 0.000E+00 2.438E+01 2.396E+01 
8.000E-03 2.967E-01 1.428E-01 9.901E+00 0.000E+00 0.000E+00 1.034E+01 1.004E+01 
1.000E-02 2.221E-01 1.536E-01 4.966E+00 0.000E+00 0.000E+00 5.342E+00 5.120E+00 
1.500E-02 1.293E-01 1.686E-01 1.391E+00 0.000E+00 0.000E+00 1.689E+00 1.560E+00 
2.000E-02 8.584E-02 1.762E-01 5.568E-01 0.000E+00 0.000E+00 8.188E-01 7.330E-01 
3.000E-02 4.539E-02 1.816E-01 1.509E-01 0.000E+00 0.000E+00 3.779E-01 3.325E-01 
4.000E-02 2.780E-02 1.814E-01 5.922E-02 0.000E+00 0.000E+00 2.684E-01 2.406E-01 
5.000E-02 1.873E-02 1.790E-01 2.857E-02 0.000E+00 0.000E+00 2.263E-01 2.075E-01 
6.000E-02 1.347E-02 1.757E-01 1.572E-02 0.000E+00 0.000E+00 2.048E-01 1.914E-01 
8.000E-02 7.900E-03 1.684E-01 6.115E-03 0.000E+00 0.000E+00 1.824E-01 1.745E-01 
1.000E-01 5.175E-03 1.613E-01 2.941E-03 0.000E+00 0.000E+00 1.694E-01 1.642E-01 
1.500E-01 2.362E-03 1.461E-01 7.841E-04 0.000E+00 0.000E+00 1.493E-01 1.469E-01 
2.000E-01 1.342E-03 1.342E-01 3.113E-04 0.000E+00 0.000E+00 1.359E-01 1.345E-01 
3.000E-01 6.014E-04 1.170E-01 8.843E-05 0.000E+00 0.000E+00 1.176E-01 1.170E-01 
4.000E-01 3.393E-04 1.049E-01 3.797E-05 0.000E+00 0.000E+00 1.053E-01 1.049E-01 
5.000E-01 2.174E-04 9.582E-02 2.051E-05 0.000E+00 0.000E+00 9.606E-02 9.584E-02 
6.000E-01 1.511E-04 8.865E-02 1.279E-05 0.000E+00 0.000E+00 8.881E-02 8.866E-02 
8.000E-01 8.507E-05 7.790E-02 6.459E-06 0.000E+00 0.000E+00 7.800E-02 7.791E-02 
1.000E+00 5.446E-05 7.007E-02 4.015E-06 0.000E+00 0.000E+00 7.012E-02 7.007E-02 
1.022E+00 5.215E-05 6.933E-02 3.751E-06 0.000E+00 0.000E+00 6.938E-02 6.933E-02 
1.250E+00 3.487E-05 6.265E-02 2.545E-06 1.731E-05 0.000E+00 6.271E-02 6.267E-02 
1.500E+00 2.421E-05 5.694E-02 1.846E-06 9.567E-05 0.000E+00 5.706E-02 5.704E-02 
2.000E+00 1.362E-05 4.860E-02 1.158E-06 3.807E-04 0.000E+00 4.900E-02 4.898E-02 
2.044E+00 1.304E-05 4.799E-02 1.120E-06 4.103E-04 0.000E+00 4.841E-02 4.840E-02 
3.000E+00 6.055E-06 3.823E-02 6.451E-07 1.088E-03 1.338E-05 3.934E-02 3.933E-02 
4.000E+00 3.406E-06 3.189E-02 4.419E-07 1.765E-03 5.461E-05 3.371E-02 3.371E-02 
5.000E+00 2.180E-06 2.754E-02 3.346E-07 2.368E-03 1.088E-04 3.002E-02 3.002E-02 
6.000E+00 1.514E-06 2.434E-02 2.687E-07 2.909E-03 1.671E-04 2.742E-02 2.742E-02 
