Density

1.08

Photon    Coherent Incoher. Photoel. Nuclear  Electron Tot. w/  Tot. wo/ 
Energy    Scatter. Scatter. Absorb.  Pr. Prd. Pr. Prd. Coherent Coherent 

1.000E-03 1.373E+00 1.331E-02 3.950E+03 0.000E+00 0.000E+00 3.952E+03 3.950E+03 
1.500E-03 1.268E+00 2.693E-02 1.330E+03 0.000E+00 0.000E+00 1.331E+03 1.330E+03 
2.000E-03 1.146E+00 4.208E-02 5.959E+02 0.000E+00 0.000E+00 5.970E+02 5.959E+02 
2.822E-03 9.449E-01 6.617E-02 2.216E+02 0.000E+00 0.000E+00 2.226E+02 2.216E+02 
2.822E-03 9.449E-01 6.617E-02 2.391E+02 0.000E+00 0.000E+00 2.401E+02 2.391E+02 
3.000E-03 9.043E-01 7.096E-02 2.013E+02 0.000E+00 0.000E+00 2.023E+02 2.014E+02 
4.000E-03 7.047E-01 9.439E-02 8.683E+01 0.000E+00 0.000E+00 8.763E+01 8.693E+01 
5.000E-03 5.559E-01 1.123E-01 4.474E+01 0.000E+00 0.000E+00 4.541E+01 4.485E+01 
6.000E-03 4.483E-01 1.256E-01 2.585E+01 0.000E+00 0.000E+00 2.642E+01 2.597E+01 
8.000E-03 3.113E-01 1.435E-01 1.075E+01 0.000E+00 0.000E+00 1.121E+01 1.090E+01 
1.000E-02 2.323E-01 1.545E-01 5.398E+00 0.000E+00 0.000E+00 5.784E+00 5.552E+00 
1.500E-02 1.347E-01 1.694E-01 1.514E+00 0.000E+00 0.000E+00 1.818E+00 1.683E+00 
2.000E-02 8.948E-02 1.769E-01 6.065E-01 0.000E+00 0.000E+00 8.729E-01 7.835E-01 
3.000E-02 4.741E-02 1.825E-01 1.645E-01 0.000E+00 0.000E+00 3.943E-01 3.469E-01 
4.000E-02 2.906E-02 1.823E-01 6.459E-02 0.000E+00 0.000E+00 2.760E-01 2.469E-01 
5.000E-02 1.959E-02 1.799E-01 3.117E-02 0.000E+00 0.000E+00 2.307E-01 2.111E-01 
6.000E-02 1.409E-02 1.766E-01 1.715E-02 0.000E+00 0.000E+00 2.079E-01 1.938E-01 
8.000E-02 8.271E-03 1.693E-01 6.675E-03 0.000E+00 0.000E+00 1.843E-01 1.760E-01 
1.000E-01 5.421E-03 1.622E-01 3.211E-03 0.000E+00 0.000E+00 1.709E-01 1.655E-01 
1.500E-01 2.476E-03 1.470E-01 8.562E-04 0.000E+00 0.000E+00 1.504E-01 1.479E-01 
2.000E-01 1.408E-03 1.350E-01 3.399E-04 0.000E+00 0.000E+00 1.368E-01 1.354E-01 
3.000E-01 6.309E-04 1.177E-01 9.658E-05 0.000E+00 0.000E+00 1.184E-01 1.178E-01 
4.000E-01 3.559E-04 1.055E-01 4.148E-05 0.000E+00 0.000E+00 1.059E-01 1.056E-01 
5.000E-01 2.281E-04 9.642E-02 2.240E-05 0.000E+00 0.000E+00 9.667E-02 9.644E-02 
6.000E-01 1.585E-04 8.920E-02 1.397E-05 0.000E+00 0.000E+00 8.937E-02 8.921E-02 
8.000E-01 8.926E-05 7.839E-02 7.054E-06 0.000E+00 0.000E+00 7.849E-02 7.840E-02 
1.000E+00 5.714E-05 7.051E-02 4.386E-06 0.000E+00 0.000E+00 7.057E-02 7.051E-02 
1.022E+00 5.472E-05 6.976E-02 4.099E-06 0.000E+00 0.000E+00 6.982E-02 6.976E-02 
1.250E+00 3.659E-05 6.304E-02 2.781E-06 1.783E-05 0.000E+00 6.310E-02 6.306E-02 
1.500E+00 2.540E-05 5.729E-02 2.017E-06 9.851E-05 0.000E+00 5.742E-02 5.739E-02 
2.000E+00 1.429E-05 4.890E-02 1.266E-06 3.919E-04 0.000E+00 4.931E-02 4.930E-02 
2.044E+00 1.368E-05 4.829E-02 1.224E-06 4.223E-04 0.000E+00 4.872E-02 4.871E-02 
3.000E+00 6.352E-06 3.847E-02 7.048E-07 1.120E-03 1.346E-05 3.961E-02 3.960E-02 
4.000E+00 3.574E-06 3.209E-02 4.828E-07 1.816E-03 5.495E-05 3.396E-02 3.396E-02 
5.000E+00 2.287E-06 2.771E-02 3.655E-07 2.436E-03 1.095E-04 3.026E-02 3.026E-02 
6.000E+00 1.588E-06 2.449E-02 2.936E-07 2.993E-03 1.682E-04 2.766E-02 2.765E-02 
