Density

0.3

Photon    Coherent Incoher. Photoel. Nuclear  Electron Tot. w/  Tot. wo/ 
Energy    Scatter. Scatter. Absorb.  Pr. Prd. Pr. Prd. Coherent Coherent 

1.000E-03 1.230E+00 1.535E-02 2.306E+03 0.000E+00 0.000E+00 2.307E+03 2.306E+03 
1.142E-03 1.195E+00 1.922E-02 1.599E+03 0.000E+00 0.000E+00 1.600E+03 1.599E+03 
1.305E-03 1.156E+00 2.395E-02 1.106E+03 0.000E+00 0.000E+00 1.108E+03 1.107E+03 
1.305E-03 1.156E+00 2.395E-02 1.682E+03 0.000E+00 0.000E+00 1.684E+03 1.682E+03 
1.500E-03 1.108E+00 2.988E-02 1.176E+03 0.000E+00 0.000E+00 1.177E+03 1.176E+03 
1.839E-03 1.022E+00 4.031E-02 6.766E+02 0.000E+00 0.000E+00 6.777E+02 6.766E+02 
1.839E-03 1.022E+00 4.031E-02 6.942E+02 0.000E+00 0.000E+00 6.953E+02 6.942E+02 
2.000E-03 9.811E-01 4.522E-02 5.509E+02 0.000E+00 0.000E+00 5.519E+02 5.509E+02 
2.822E-03 7.926E-01 6.860E-02 2.095E+02 0.000E+00 0.000E+00 2.104E+02 2.096E+02 
2.822E-03 7.926E-01 6.860E-02 2.117E+02 0.000E+00 0.000E+00 2.126E+02 2.118E+02 
3.000E-03 7.572E-01 7.315E-02 1.780E+02 0.000E+00 0.000E+00 1.788E+02 1.781E+02 
4.000E-03 5.919E-01 9.497E-02 7.750E+01 0.000E+00 0.000E+00 7.819E+01 7.760E+01 
5.000E-03 4.743E-01 1.110E-01 4.018E+01 0.000E+00 0.000E+00 4.076E+01 4.029E+01 
6.000E-03 3.894E-01 1.229E-01 2.332E+01 0.000E+00 0.000E+00 2.383E+01 2.344E+01 
8.000E-03 2.787E-01 1.391E-01 9.763E+00 0.000E+00 0.000E+00 1.018E+01 9.902E+00 
1.000E-02 2.117E-01 1.497E-01 4.924E+00 0.000E+00 0.000E+00 5.285E+00 5.074E+00 
1.500E-02 1.240E-01 1.654E-01 1.392E+00 0.000E+00 0.000E+00 1.681E+00 1.558E+00 
2.000E-02 8.172E-02 1.733E-01 5.608E-01 0.000E+00 0.000E+00 8.158E-01 7.341E-01 
3.000E-02 4.297E-02 1.787E-01 1.532E-01 0.000E+00 0.000E+00 3.748E-01 3.319E-01 
4.000E-02 2.635E-02 1.783E-01 6.045E-02 0.000E+00 0.000E+00 2.651E-01 2.387E-01 
5.000E-02 1.776E-02 1.758E-01 2.926E-02 0.000E+00 0.000E+00 2.228E-01 2.050E-01 
6.000E-02 1.275E-02 1.725E-01 1.614E-02 0.000E+00 0.000E+00 2.014E-01 1.886E-01 
8.000E-02 7.473E-03 1.653E-01 6.303E-03 0.000E+00 0.000E+00 1.791E-01 1.716E-01 
1.000E-01 4.892E-03 1.583E-01 3.038E-03 0.000E+00 0.000E+00 1.662E-01 1.613E-01 
1.500E-01 2.233E-03 1.434E-01 8.129E-04 0.000E+00 0.000E+00 1.464E-01 1.442E-01 
2.000E-01 1.269E-03 1.317E-01 3.235E-04 0.000E+00 0.000E+00 1.333E-01 1.320E-01 
3.000E-01 5.688E-04 1.147E-01 9.198E-05 0.000E+00 0.000E+00 1.154E-01 1.148E-01 
4.000E-01 3.209E-04 1.029E-01 3.955E-05 0.000E+00 0.000E+00 1.033E-01 1.029E-01 
5.000E-01 2.057E-04 9.401E-02 2.138E-05 0.000E+00 0.000E+00 9.424E-02 9.403E-02 
6.000E-01 1.429E-04 8.697E-02 1.334E-05 0.000E+00 0.000E+00 8.713E-02 8.698E-02 
8.000E-01 8.046E-05 7.642E-02 6.735E-06 0.000E+00 0.000E+00 7.650E-02 7.642E-02 
1.000E+00 5.151E-05 6.872E-02 4.188E-06 0.000E+00 0.000E+00 6.878E-02 6.872E-02 
1.022E+00 4.932E-05 6.801E-02 3.920E-06 0.000E+00 0.000E+00 6.806E-02 6.801E-02 
1.250E+00 3.298E-05 6.145E-02 2.659E-06 1.639E-05 0.000E+00 6.151E-02 6.147E-02 
1.500E+00 2.290E-05 5.586E-02 1.928E-06 9.065E-05 0.000E+00 5.598E-02 5.596E-02 
2.000E+00 1.288E-05 4.767E-02 1.209E-06 3.608E-04 0.000E+00 4.804E-02 4.803E-02 
2.044E+00 1.234E-05 4.708E-02 1.169E-06 3.889E-04 0.000E+00 4.748E-02 4.747E-02 
3.000E+00 5.727E-06 3.750E-02 6.723E-07 1.031E-03 1.312E-05 3.855E-02 3.855E-02 
4.000E+00 3.221E-06 3.128E-02 4.600E-07 1.673E-03 5.357E-05 3.301E-02 3.301E-02 
5.000E+00 2.062E-06 2.701E-02 3.482E-07 2.244E-03 1.068E-04 2.937E-02 2.937E-02 
6.000E+00 1.432E-06 2.388E-02 2.795E-07 2.758E-03 1.639E-04 2.680E-02 2.680E-02 
