Density

0.26

Photon    Coherent Incoher. Photoel. Nuclear  Electron Tot. w/  Tot. wo/ 
Energy    Scatter. Scatter. Absorb.  Pr. Prd. Pr. Prd. Coherent Coherent 

1.000E-03 1.35E+00 1.34E-02 3.80E+03 0.00E+00 0.00E+00 3.80E+03 3.80E+03 
1.035E-03 1.34E+00 1.42E-02 3.46E+03 0.00E+00 0.00E+00 3.47E+03 3.46E+03 
1.072E-03 1.33E+00 1.51E-02 3.16E+03 0.00E+00 0.00E+00 3.16E+03 3.16E+03 
1.072E-03 1.33E+00 1.51E-02 3.17E+03 0.00E+00 0.00E+00 3.17E+03 3.17E+03 
1.500E-03 1.24E+00 2.70E-02 1.28E+03 0.00E+00 0.00E+00 1.28E+03 1.28E+03 
2.000E-03 1.12E+00 4.20E-02 5.74E+02 0.00E+00 0.00E+00 5.75E+02 5.74E+02 
2.145E-03 1.08E+00 4.64E-02 4.70E+02 0.00E+00 0.00E+00 4.71E+02 4.70E+02 
2.145E-03 1.08E+00 4.64E-02 4.74E+02 0.00E+00 0.00E+00 4.75E+02 4.74E+02 
2.303E-03 1.04E+00 5.11E-02 3.87E+02 0.00E+00 0.00E+00 3.88E+02 3.87E+02 
2.472E-03 1.00E+00 5.61E-02 3.16E+02 0.00E+00 0.00E+00 3.17E+02 3.16E+02 
2.472E-03 1.00E+00 5.61E-02 3.22E+02 0.00E+00 0.00E+00 3.23E+02 3.22E+02 
2.641E-03 9.62E-01 6.10E-02 2.66E+02 0.00E+00 0.00E+00 2.67E+02 2.66E+02 
2.822E-03 9.20E-01 6.60E-02 2.20E+02 0.00E+00 0.00E+00 2.20E+02 2.20E+02 
2.822E-03 9.20E-01 6.60E-02 2.24E+02 0.00E+00 0.00E+00 2.25E+02 2.24E+02 
3.000E-03 8.80E-01 7.07E-02 1.88E+02 0.00E+00 0.00E+00 1.89E+02 1.88E+02 
3.607E-03 7.55E-01 8.56E-02 1.10E+02 0.00E+00 0.00E+00 1.10E+02 1.10E+02 
3.607E-03 7.55E-01 8.56E-02 1.12E+02 0.00E+00 0.00E+00 1.12E+02 1.12E+02 
4.000E-03 6.84E-01 9.40E-02 8.23E+01 0.00E+00 0.00E+00 8.31E+01 8.24E+01 
5.000E-03 5.40E-01 1.12E-01 4.23E+01 0.00E+00 0.00E+00 4.30E+01 4.24E+01 
6.000E-03 4.35E-01 1.25E-01 2.44E+01 0.00E+00 0.00E+00 2.50E+01 2.45E+01 
8.000E-03 3.03E-01 1.42E-01 1.01E+01 0.00E+00 0.00E+00 1.06E+01 1.03E+01 
1.000E-02 2.26E-01 1.53E-01 5.08E+00 0.00E+00 0.00E+00 5.46E+00 5.23E+00 
1.500E-02 1.31E-01 1.68E-01 1.42E+00 0.00E+00 0.00E+00 1.72E+00 1.59E+00 
2.000E-02 8.73E-02 1.76E-01 5.69E-01 0.00E+00 0.00E+00 8.32E-01 7.44E-01 
3.000E-02 4.62E-02 1.81E-01 1.54E-01 0.00E+00 0.00E+00 3.82E-01 3.35E-01 
4.000E-02 2.83E-02 1.81E-01 6.03E-02 0.00E+00 0.00E+00 2.70E-01 2.42E-01 
5.000E-02 1.91E-02 1.79E-01 2.91E-02 0.00E+00 0.00E+00 2.27E-01 2.08E-01 
6.000E-02 1.37E-02 1.76E-01 1.60E-02 0.00E+00 0.00E+00 2.05E-01 1.92E-01 
8.000E-02 8.05E-03 1.68E-01 6.22E-03 0.00E+00 0.00E+00 1.83E-01 1.75E-01 
1.000E-01 5.27E-03 1.61E-01 2.99E-03 0.00E+00 0.00E+00 1.70E-01 1.64E-01 
1.500E-01 2.41E-03 1.46E-01 7.96E-04 0.00E+00 0.00E+00 1.49E-01 1.47E-01 
2.000E-01 1.37E-03 1.34E-01 3.16E-04 0.00E+00 0.00E+00 1.36E-01 1.35E-01 
3.000E-01 6.13E-04 1.17E-01 8.97E-05 0.00E+00 0.00E+00 1.18E-01 1.17E-01 
4.000E-01 3.46E-04 1.05E-01 3.85E-05 0.00E+00 0.00E+00 1.05E-01 1.05E-01 
5.000E-01 2.22E-04 9.58E-02 2.08E-05 0.00E+00 0.00E+00 9.61E-02 9.58E-02 
6.000E-01 1.54E-04 8.87E-02 1.30E-05 0.00E+00 0.00E+00 8.88E-02 8.87E-02 
8.000E-01 8.67E-05 7.79E-02 6.55E-06 0.00E+00 0.00E+00 7.80E-02 7.79E-02 
1.000E+00 5.55E-05 7.01E-02 4.07E-06 0.00E+00 0.00E+00 7.01E-02 7.01E-02 
1.022E+00 5.31E-05 6.93E-02 3.80E-06 0.00E+00 0.00E+00 6.94E-02 6.93E-02 
1.250E+00 3.55E-05 6.27E-02 2.58E-06 1.75E-05 0.00E+00 6.27E-02 6.27E-02 
1.500E+00 2.47E-05 5.69E-02 1.87E-06 9.69E-05 0.00E+00 5.71E-02 5.70E-02 
2.000E+00 1.39E-05 4.86E-02 1.17E-06 3.86E-04 0.00E+00 4.90E-02 4.90E-02 
2.044E+00 1.33E-05 4.80E-02 1.14E-06 4.15E-04 0.00E+00 4.84E-02 4.84E-02 
3.000E+00 6.17E-06 3.82E-02 6.54E-07 1.10E-03 1.34E-05 3.94E-02 3.93E-02 
4.000E+00 3.47E-06 3.19E-02 4.48E-07 1.79E-03 5.46E-05 3.37E-02 3.37E-02 
5.000E+00 2.22E-06 2.75E-02 3.39E-07 2.40E-03 1.09E-04 3.00E-02 3.00E-02 
6.000E+00 1.54E-06 2.43E-02 2.73E-07 2.95E-03 1.67E-04 2.75E-02 2.75E-02 
