Density

1.03

Photon    Coherent Incoher. Photoel. Nuclear  Electron Tot. w/  Tot. wo/ 
Energy    Scatter. Scatter. Absorb.  Pr. Prd. Pr. Prd. Coherent Coherent 

1.000E-03 1.323E+00 1.351E-02 3.535E+03 0.000E+00 0.000E+00 3.536E+03 3.535E+03 
1.035E-03 1.315E+00 1.437E-02 3.220E+03 0.000E+00 0.000E+00 3.221E+03 3.220E+03 
1.072E-03 1.307E+00 1.528E-02 2.933E+03 0.000E+00 0.000E+00 2.935E+03 2.933E+03 
1.072E-03 1.307E+00 1.528E-02 2.948E+03 0.000E+00 0.000E+00 2.950E+03 2.948E+03 
1.500E-03 1.214E+00 2.715E-02 1.188E+03 0.000E+00 0.000E+00 1.190E+03 1.188E+03 
2.000E-03 1.090E+00 4.222E-02 5.302E+02 0.000E+00 0.000E+00 5.313E+02 5.302E+02 
2.145E-03 1.053E+00 4.659E-02 4.339E+02 0.000E+00 0.000E+00 4.350E+02 4.340E+02 
2.145E-03 1.053E+00 4.659E-02 4.452E+02 0.000E+00 0.000E+00 4.463E+02 4.452E+02 
2.303E-03 1.014E+00 5.128E-02 3.637E+02 0.000E+00 0.000E+00 3.648E+02 3.638E+02 
2.472E-03 9.727E-01 5.620E-02 2.969E+02 0.000E+00 0.000E+00 2.979E+02 2.969E+02 
2.472E-03 9.727E-01 5.620E-02 3.088E+02 0.000E+00 0.000E+00 3.098E+02 3.088E+02 
2.641E-03 9.324E-01 6.102E-02 2.556E+02 0.000E+00 0.000E+00 2.566E+02 2.556E+02 
2.822E-03 8.907E-01 6.600E-02 2.113E+02 0.000E+00 0.000E+00 2.123E+02 2.114E+02 
2.822E-03 8.907E-01 6.600E-02 2.170E+02 0.000E+00 0.000E+00 2.180E+02 2.171E+02 
3.000E-03 8.513E-01 7.071E-02 1.824E+02 0.000E+00 0.000E+00 1.833E+02 1.824E+02 
3.607E-03 7.291E-01 8.535E-02 1.067E+02 0.000E+00 0.000E+00 1.075E+02 1.067E+02 
3.607E-03 7.291E-01 8.535E-02 1.121E+02 0.000E+00 0.000E+00 1.129E+02 1.121E+02 
4.000E-03 6.609E-01 9.363E-02 8.278E+01 0.000E+00 0.000E+00 8.353E+01 8.287E+01 
5.000E-03 5.216E-01 1.109E-01 4.283E+01 0.000E+00 0.000E+00 4.346E+01 4.294E+01 
6.000E-03 4.219E-01 1.238E-01 2.483E+01 0.000E+00 0.000E+00 2.537E+01 2.495E+01 
8.000E-03 2.954E-01 1.410E-01 1.038E+01 0.000E+00 0.000E+00 1.082E+01 1.052E+01 
1.000E-02 2.220E-01 1.518E-01 5.234E+00 0.000E+00 0.000E+00 5.608E+00 5.386E+00 
1.500E-02 1.297E-01 1.668E-01 1.479E+00 0.000E+00 0.000E+00 1.776E+00 1.646E+00 
2.000E-02 8.609E-02 1.745E-01 5.957E-01 0.000E+00 0.000E+00 8.563E-01 7.702E-01 
3.000E-02 4.549E-02 1.800E-01 1.627E-01 0.000E+00 0.000E+00 3.882E-01 3.427E-01 
4.000E-02 2.788E-02 1.798E-01 6.422E-02 0.000E+00 0.000E+00 2.719E-01 2.441E-01 
5.000E-02 1.880E-02 1.774E-01 3.110E-02 0.000E+00 0.000E+00 2.273E-01 2.085E-01 
6.000E-02 1.352E-02 1.742E-01 1.716E-02 0.000E+00 0.000E+00 2.048E-01 1.913E-01 
8.000E-02 7.932E-03 1.669E-01 6.707E-03 0.000E+00 0.000E+00 1.816E-01 1.737E-01 
1.000E-01 5.197E-03 1.599E-01 3.236E-03 0.000E+00 0.000E+00 1.684E-01 1.632E-01 
1.500E-01 2.373E-03 1.449E-01 8.673E-04 0.000E+00 0.000E+00 1.482E-01 1.458E-01 
2.000E-01 1.349E-03 1.331E-01 3.454E-04 0.000E+00 0.000E+00 1.348E-01 1.335E-01 
3.000E-01 6.046E-04 1.160E-01 9.846E-05 0.000E+00 0.000E+00 1.167E-01 1.161E-01 
4.000E-01 3.411E-04 1.040E-01 4.237E-05 0.000E+00 0.000E+00 1.044E-01 1.040E-01 
5.000E-01 2.186E-04 9.503E-02 2.291E-05 0.000E+00 0.000E+00 9.527E-02 9.505E-02 
6.000E-01 1.519E-04 8.791E-02 1.429E-05 0.000E+00 0.000E+00 8.808E-02 8.793E-02 
8.000E-01 8.554E-05 7.726E-02 7.223E-06 0.000E+00 0.000E+00 7.735E-02 7.726E-02 
1.000E+00 5.476E-05 6.948E-02 4.491E-06 0.000E+00 0.000E+00 6.954E-02 6.949E-02 
1.022E+00 5.244E-05 6.875E-02 4.202E-06 0.000E+00 0.000E+00 6.881E-02 6.876E-02 
1.250E+00 3.506E-05 6.213E-02 2.851E-06 1.731E-05 0.000E+00 6.218E-02 6.215E-02 
1.500E+00 2.435E-05 5.647E-02 2.066E-06 9.562E-05 0.000E+00 5.659E-02 5.656E-02 
2.000E+00 1.370E-05 4.819E-02 1.295E-06 3.804E-04 0.000E+00 4.859E-02 4.858E-02 
2.044E+00 1.311E-05 4.759E-02 1.252E-06 4.099E-04 0.000E+00 4.801E-02 4.800E-02 
3.000E+00 6.088E-06 3.791E-02 7.196E-07 1.087E-03 1.326E-05 3.902E-02 3.901E-02 
4.000E+00 3.425E-06 3.162E-02 4.923E-07 1.763E-03 5.415E-05 3.344E-02 3.344E-02 
5.000E+00 2.192E-06 2.731E-02 3.725E-07 2.365E-03 1.079E-04 2.979E-02 2.978E-02 
6.000E+00 1.522E-06 2.414E-02 2.989E-07 2.906E-03 1.657E-04 2.721E-02 2.721E-02 
