Density

1.05

Photon    Coherent Incoher. Photoel. Nuclear  Electron Tot. w/  Tot. wo/ 
Energy    Scatter. Scatter. Absorb.  Pr. Prd. Pr. Prd. Coherent Coherent 

1.000E-03 1.35E+00 1.33E-02 3.80E+03 0.00E+00 0.00E+00 3.80E+03 3.80E+03 
1.035E-03 1.34E+00 1.42E-02 3.46E+03 0.00E+00 0.00E+00 3.46E+03 3.46E+03 
1.072E-03 1.33E+00 1.51E-02 3.15E+03 0.00E+00 0.00E+00 3.15E+03 3.15E+03 
1.072E-03 1.33E+00 1.51E-02 3.16E+03 0.00E+00 0.00E+00 3.16E+03 3.16E+03 
1.500E-03 1.24E+00 2.69E-02 1.28E+03 0.00E+00 0.00E+00 1.28E+03 1.28E+03 
2.000E-03 1.12E+00 4.20E-02 5.71E+02 0.00E+00 0.00E+00 5.72E+02 5.71E+02 
2.145E-03 1.08E+00 4.64E-02 4.68E+02 0.00E+00 0.00E+00 4.69E+02 4.68E+02 
2.145E-03 1.08E+00 4.64E-02 4.72E+02 0.00E+00 0.00E+00 4.73E+02 4.72E+02 
2.303E-03 1.04E+00 5.11E-02 3.86E+02 0.00E+00 0.00E+00 3.87E+02 3.86E+02 
2.472E-03 1.00E+00 5.60E-02 3.15E+02 0.00E+00 0.00E+00 3.16E+02 3.15E+02 
2.472E-03 1.00E+00 5.60E-02 3.20E+02 0.00E+00 0.00E+00 3.21E+02 3.20E+02 
2.641E-03 9.60E-01 6.09E-02 2.65E+02 0.00E+00 0.00E+00 2.66E+02 2.65E+02 
2.822E-03 9.18E-01 6.59E-02 2.19E+02 0.00E+00 0.00E+00 2.20E+02 2.19E+02 
2.822E-03 9.18E-01 6.59E-02 2.20E+02 0.00E+00 0.00E+00 2.21E+02 2.20E+02 
3.000E-03 8.78E-01 7.07E-02 1.84E+02 0.00E+00 0.00E+00 1.85E+02 1.84E+02 
3.607E-03 7.53E-01 8.55E-02 1.07E+02 0.00E+00 0.00E+00 1.08E+02 1.07E+02 
3.607E-03 7.53E-01 8.55E-02 1.12E+02 0.00E+00 0.00E+00 1.12E+02 1.12E+02 
4.000E-03 6.83E-01 9.39E-02 8.23E+01 0.00E+00 0.00E+00 8.31E+01 8.24E+01 
5.000E-03 5.39E-01 1.12E-01 4.24E+01 0.00E+00 0.00E+00 4.30E+01 4.25E+01 
6.000E-03 4.34E-01 1.25E-01 2.45E+01 0.00E+00 0.00E+00 2.50E+01 2.46E+01 
8.000E-03 3.02E-01 1.42E-01 1.02E+01 0.00E+00 0.00E+00 1.06E+01 1.03E+01 
1.000E-02 2.26E-01 1.53E-01 5.10E+00 0.00E+00 0.00E+00 5.48E+00 5.25E+00 
1.500E-02 1.31E-01 1.68E-01 1.43E+00 0.00E+00 0.00E+00 1.73E+00 1.60E+00 
2.000E-02 8.72E-02 1.76E-01 5.72E-01 0.00E+00 0.00E+00 8.35E-01 7.48E-01 
3.000E-02 4.62E-02 1.81E-01 1.55E-01 0.00E+00 0.00E+00 3.82E-01 3.36E-01 
4.000E-02 2.83E-02 1.81E-01 6.08E-02 0.00E+00 0.00E+00 2.70E-01 2.42E-01 
5.000E-02 1.91E-02 1.79E-01 2.93E-02 0.00E+00 0.00E+00 2.27E-01 2.08E-01 
6.000E-02 1.37E-02 1.75E-01 1.61E-02 0.00E+00 0.00E+00 2.05E-01 1.92E-01 
8.000E-02 8.04E-03 1.68E-01 6.28E-03 0.00E+00 0.00E+00 1.83E-01 1.74E-01 
1.000E-01 5.27E-03 1.61E-01 3.02E-03 0.00E+00 0.00E+00 1.69E-01 1.64E-01 
1.500E-01 2.40E-03 1.46E-01 8.06E-04 0.00E+00 0.00E+00 1.49E-01 1.47E-01 
2.000E-01 1.37E-03 1.34E-01 3.20E-04 0.00E+00 0.00E+00 1.36E-01 1.34E-01 
3.000E-01 6.12E-04 1.17E-01 9.09E-05 0.00E+00 0.00E+00 1.18E-01 1.17E-01 
4.000E-01 3.45E-04 1.05E-01 3.90E-05 0.00E+00 0.00E+00 1.05E-01 1.05E-01 
5.000E-01 2.21E-04 9.57E-02 2.11E-05 0.00E+00 0.00E+00 9.60E-02 9.58E-02 
6.000E-01 1.54E-04 8.86E-02 1.31E-05 0.00E+00 0.00E+00 8.87E-02 8.86E-02 
8.000E-01 8.66E-05 7.78E-02 6.64E-06 0.00E+00 0.00E+00 7.79E-02 7.79E-02 
1.000E+00 5.54E-05 7.00E-02 4.13E-06 0.00E+00 0.00E+00 7.01E-02 7.00E-02 
1.022E+00 5.31E-05 6.93E-02 3.86E-06 0.00E+00 0.00E+00 6.93E-02 6.93E-02 
1.250E+00 3.55E-05 6.26E-02 2.62E-06 1.75E-05 0.00E+00 6.27E-02 6.26E-02 
1.500E+00 2.46E-05 5.69E-02 1.90E-06 9.68E-05 0.00E+00 5.70E-02 5.70E-02 
2.000E+00 1.39E-05 4.86E-02 1.19E-06 3.85E-04 0.00E+00 4.90E-02 4.89E-02 
2.044E+00 1.33E-05 4.79E-02 1.15E-06 4.15E-04 0.00E+00 4.84E-02 4.84E-02 
3.000E+00 6.16E-06 3.82E-02 6.63E-07 1.10E-03 1.34E-05 3.93E-02 3.93E-02 
4.000E+00 3.47E-06 3.19E-02 4.54E-07 1.79E-03 5.46E-05 3.37E-02 3.37E-02 
5.000E+00 2.22E-06 2.75E-02 3.44E-07 2.40E-03 1.09E-04 3.00E-02 3.00E-02 
6.000E+00 1.54E-06 2.43E-02 2.76E-07 2.94E-03 1.67E-04 2.74E-02 2.74E-02 
