Density

1.05

Photon    Coherent Incoher. Photoel. Nuclear  Electron Tot. w/  Tot. wo/ 
Energy    Scatter. Scatter. Absorb.  Pr. Prd. Pr. Prd. Coherent Coherent 

1.000E-03 1.33E+00 1.35E-02 3.72E+03 0.00E+00 0.00E+00 3.72E+03 3.72E+03 
1.035E-03 1.32E+00 1.43E-02 3.39E+03 0.00E+00 0.00E+00 3.39E+03 3.39E+03 
1.072E-03 1.32E+00 1.53E-02 3.09E+03 0.00E+00 0.00E+00 3.09E+03 3.09E+03 
1.072E-03 1.32E+00 1.53E-02 3.09E+03 0.00E+00 0.00E+00 3.09E+03 3.09E+03 
1.500E-03 1.23E+00 2.72E-02 1.25E+03 0.00E+00 0.00E+00 1.25E+03 1.25E+03 
2.000E-03 1.10E+00 4.23E-02 5.58E+02 0.00E+00 0.00E+00 5.59E+02 5.58E+02 
2.145E-03 1.07E+00 4.67E-02 4.57E+02 0.00E+00 0.00E+00 4.58E+02 4.57E+02 
2.145E-03 1.07E+00 4.67E-02 4.61E+02 0.00E+00 0.00E+00 4.63E+02 4.62E+02 
2.303E-03 1.03E+00 5.15E-02 3.77E+02 0.00E+00 0.00E+00 3.78E+02 3.77E+02 
2.472E-03 9.87E-01 5.64E-02 3.07E+02 0.00E+00 0.00E+00 3.09E+02 3.08E+02 
2.472E-03 9.87E-01 5.64E-02 3.13E+02 0.00E+00 0.00E+00 3.14E+02 3.13E+02 
2.641E-03 9.47E-01 6.13E-02 2.59E+02 0.00E+00 0.00E+00 2.60E+02 2.59E+02 
2.822E-03 9.05E-01 6.63E-02 2.14E+02 0.00E+00 0.00E+00 2.15E+02 2.14E+02 
2.822E-03 9.05E-01 6.63E-02 2.15E+02 0.00E+00 0.00E+00 2.16E+02 2.15E+02 
3.000E-03 8.65E-01 7.11E-02 1.80E+02 0.00E+00 0.00E+00 1.81E+02 1.80E+02 
3.607E-03 7.42E-01 8.59E-02 1.05E+02 0.00E+00 0.00E+00 1.06E+02 1.05E+02 
3.607E-03 7.42E-01 8.59E-02 1.09E+02 0.00E+00 0.00E+00 1.10E+02 1.09E+02 
4.000E-03 6.72E-01 9.43E-02 8.05E+01 0.00E+00 0.00E+00 8.13E+01 8.06E+01 
5.000E-03 5.30E-01 1.12E-01 4.14E+01 0.00E+00 0.00E+00 4.21E+01 4.15E+01 
6.000E-03 4.28E-01 1.25E-01 2.39E+01 0.00E+00 0.00E+00 2.45E+01 2.40E+01 
8.000E-03 2.98E-01 1.43E-01 9.93E+00 0.00E+00 0.00E+00 1.04E+01 1.01E+01 
1.000E-02 2.23E-01 1.53E-01 4.98E+00 0.00E+00 0.00E+00 5.36E+00 5.13E+00 
1.500E-02 1.30E-01 1.68E-01 1.40E+00 0.00E+00 0.00E+00 1.69E+00 1.56E+00 
2.000E-02 8.61E-02 1.76E-01 5.59E-01 0.00E+00 0.00E+00 8.21E-01 7.35E-01 
3.000E-02 4.55E-02 1.81E-01 1.51E-01 0.00E+00 0.00E+00 3.78E-01 3.33E-01 
4.000E-02 2.79E-02 1.81E-01 5.94E-02 0.00E+00 0.00E+00 2.69E-01 2.41E-01 
5.000E-02 1.88E-02 1.79E-01 2.87E-02 0.00E+00 0.00E+00 2.26E-01 2.07E-01 
6.000E-02 1.35E-02 1.75E-01 1.58E-02 0.00E+00 0.00E+00 2.05E-01 1.91E-01 
8.000E-02 7.92E-03 1.68E-01 6.14E-03 0.00E+00 0.00E+00 1.82E-01 1.74E-01 
1.000E-01 5.19E-03 1.61E-01 2.95E-03 0.00E+00 0.00E+00 1.69E-01 1.64E-01 
1.500E-01 2.37E-03 1.46E-01 7.87E-04 0.00E+00 0.00E+00 1.49E-01 1.47E-01 
2.000E-01 1.35E-03 1.34E-01 3.13E-04 0.00E+00 0.00E+00 1.36E-01 1.34E-01 
3.000E-01 6.03E-04 1.17E-01 8.88E-05 0.00E+00 0.00E+00 1.18E-01 1.17E-01 
4.000E-01 3.40E-04 1.05E-01 3.81E-05 0.00E+00 0.00E+00 1.05E-01 1.05E-01 
5.000E-01 2.18E-04 9.57E-02 2.06E-05 0.00E+00 0.00E+00 9.60E-02 9.58E-02 
6.000E-01 1.52E-04 8.86E-02 1.28E-05 0.00E+00 0.00E+00 8.87E-02 8.86E-02 
8.000E-01 8.53E-05 7.78E-02 6.49E-06 0.00E+00 0.00E+00 7.79E-02 7.78E-02 
1.000E+00 5.46E-05 7.00E-02 4.03E-06 0.00E+00 0.00E+00 7.01E-02 7.00E-02 
1.022E+00 5.23E-05 6.93E-02 3.77E-06 0.00E+00 0.00E+00 6.93E-02 6.93E-02 
1.250E+00 3.50E-05 6.26E-02 2.56E-06 1.74E-05 0.00E+00 6.27E-02 6.26E-02 
1.500E+00 2.43E-05 5.69E-02 1.85E-06 9.59E-05 0.00E+00 5.70E-02 5.70E-02 
2.000E+00 1.37E-05 4.86E-02 1.16E-06 3.82E-04 0.00E+00 4.90E-02 4.89E-02 
2.044E+00 1.31E-05 4.79E-02 1.13E-06 4.11E-04 0.00E+00 4.84E-02 4.84E-02 
3.000E+00 6.07E-06 3.82E-02 6.48E-07 1.09E-03 1.34E-05 3.93E-02 3.93E-02 
4.000E+00 3.42E-06 3.19E-02 4.44E-07 1.77E-03 5.46E-05 3.37E-02 3.37E-02 
5.000E+00 2.19E-06 2.75E-02 3.36E-07 2.37E-03 1.09E-04 3.00E-02 3.00E-02 
6.000E+00 1.52E-06 2.43E-02 2.70E-07 2.92E-03 1.67E-04 2.74E-02 2.74E-02 
