Density

1.001

Photon    Coherent Incoher. Photoel. Nuclear  Electron Tot. w/  Tot. wo/ 
Energy    Scatter. Scatter. Absorb.  Pr. Prd. Pr. Prd. Coherent Coherent 

1.000E-03 1.38E+00 1.32E-02 4.05E+03 0.00E+00 0.00E+00 4.06E+03 4.05E+03 
1.035E-03 1.38E+00 1.40E-02 3.70E+03 0.00E+00 0.00E+00 3.70E+03 3.70E+03 
1.072E-03 1.37E+00 1.49E-02 3.37E+03 0.00E+00 0.00E+00 3.37E+03 3.37E+03 
1.072E-03 1.37E+00 1.49E-02 3.39E+03 0.00E+00 0.00E+00 3.40E+03 3.39E+03 
1.500E-03 1.28E+00 2.66E-02 1.38E+03 0.00E+00 0.00E+00 1.38E+03 1.38E+03 
2.000E-03 1.16E+00 4.17E-02 6.19E+02 0.00E+00 0.00E+00 6.20E+02 6.19E+02 
2.822E-03 9.58E-01 6.57E-02 2.30E+02 0.00E+00 0.00E+00 2.31E+02 2.30E+02 
2.822E-03 9.58E-01 6.57E-02 2.39E+02 0.00E+00 0.00E+00 2.40E+02 2.39E+02 
3.000E-03 9.17E-01 7.05E-02 2.01E+02 0.00E+00 0.00E+00 2.02E+02 2.01E+02 
4.000E-03 7.16E-01 9.39E-02 8.62E+01 0.00E+00 0.00E+00 8.71E+01 8.63E+01 
5.000E-03 5.65E-01 1.12E-01 4.43E+01 0.00E+00 0.00E+00 4.50E+01 4.44E+01 
6.000E-03 4.55E-01 1.25E-01 2.55E+01 0.00E+00 0.00E+00 2.61E+01 2.56E+01 
8.000E-03 3.15E-01 1.43E-01 1.06E+01 0.00E+00 0.00E+00 1.10E+01 1.07E+01 
1.000E-02 2.34E-01 1.55E-01 5.29E+00 0.00E+00 0.00E+00 5.68E+00 5.45E+00 
1.500E-02 1.36E-01 1.69E-01 1.48E+00 0.00E+00 0.00E+00 1.78E+00 1.65E+00 
2.000E-02 9.01E-02 1.77E-01 5.89E-01 0.00E+00 0.00E+00 8.56E-01 7.66E-01 
3.000E-02 4.78E-02 1.82E-01 1.59E-01 0.00E+00 0.00E+00 3.89E-01 3.41E-01 
4.000E-02 2.93E-02 1.82E-01 6.22E-02 0.00E+00 0.00E+00 2.74E-01 2.45E-01 
5.000E-02 1.97E-02 1.80E-01 2.99E-02 0.00E+00 0.00E+00 2.30E-01 2.10E-01 
6.000E-02 1.42E-02 1.77E-01 1.64E-02 0.00E+00 0.00E+00 2.07E-01 1.93E-01 
8.000E-02 8.32E-03 1.69E-01 6.38E-03 0.00E+00 0.00E+00 1.84E-01 1.76E-01 
1.000E-01 5.46E-03 1.62E-01 3.06E-03 0.00E+00 0.00E+00 1.71E-01 1.65E-01 
1.500E-01 2.49E-03 1.47E-01 8.14E-04 0.00E+00 0.00E+00 1.50E-01 1.48E-01 
2.000E-01 1.42E-03 1.35E-01 3.22E-04 0.00E+00 0.00E+00 1.37E-01 1.35E-01 
3.000E-01 6.35E-04 1.18E-01 9.14E-05 0.00E+00 0.00E+00 1.18E-01 1.18E-01 
4.000E-01 3.58E-04 1.06E-01 3.92E-05 0.00E+00 0.00E+00 1.06E-01 1.06E-01 
5.000E-01 2.29E-04 9.65E-02 2.12E-05 0.00E+00 0.00E+00 9.67E-02 9.65E-02 
6.000E-01 1.59E-04 8.93E-02 1.32E-05 0.00E+00 0.00E+00 8.94E-02 8.93E-02 
8.000E-01 8.98E-05 7.85E-02 6.66E-06 0.00E+00 0.00E+00 7.86E-02 7.85E-02 
1.000E+00 5.75E-05 7.06E-02 4.14E-06 0.00E+00 0.00E+00 7.06E-02 7.06E-02 
1.022E+00 5.50E-05 6.98E-02 3.86E-06 0.00E+00 0.00E+00 6.99E-02 6.98E-02 
1.250E+00 3.68E-05 6.31E-02 2.62E-06 1.79E-05 0.00E+00 6.32E-02 6.31E-02 
1.500E+00 2.55E-05 5.73E-02 1.90E-06 9.91E-05 0.00E+00 5.75E-02 5.74E-02 
2.000E+00 1.44E-05 4.89E-02 1.19E-06 3.94E-04 0.00E+00 4.94E-02 4.93E-02 
2.044E+00 1.38E-05 4.83E-02 1.16E-06 4.25E-04 0.00E+00 4.88E-02 4.88E-02 
3.000E+00 6.39E-06 3.85E-02 6.66E-07 1.13E-03 1.35E-05 3.96E-02 3.96E-02 
4.000E+00 3.59E-06 3.21E-02 4.57E-07 1.83E-03 5.50E-05 3.40E-02 3.40E-02 
5.000E+00 2.30E-06 2.77E-02 3.46E-07 2.45E-03 1.10E-04 3.03E-02 3.03E-02 
6.000E+00 1.60E-06 2.45E-02 2.78E-07 3.01E-03 1.68E-04 2.77E-02 2.77E-02 
