Density

1.19

Photon    Coherent Incoher. Photoel. Nuclear  Electron Tot. w/  Tot. wo/ 
Energy    Scatter. Scatter. Absorb.  Pr. Prd. Pr. Prd. Coherent Coherent 

1.000E-03 1.69E+00 1.24E-02 3.53E+03 0.00E+00 0.00E+00 3.53E+03 3.53E+03 
1.035E-03 1.68E+00 1.32E-02 3.22E+03 0.00E+00 0.00E+00 3.22E+03 3.22E+03 
1.072E-03 1.67E+00 1.40E-02 2.94E+03 0.00E+00 0.00E+00 2.94E+03 2.94E+03 
1.072E-03 1.67E+00 1.40E-02 3.54E+03 0.00E+00 0.00E+00 3.54E+03 3.54E+03 
1.500E-03 1.56E+00 2.45E-02 1.50E+03 0.00E+00 0.00E+00 1.50E+03 1.50E+03 
2.000E-03 1.42E+00 3.77E-02 6.82E+02 0.00E+00 0.00E+00 6.83E+02 6.82E+02 
2.822E-03 1.18E+00 5.89E-02 2.58E+02 0.00E+00 0.00E+00 2.60E+02 2.58E+02 
2.822E-03 1.18E+00 5.89E-02 4.88E+02 0.00E+00 0.00E+00 4.89E+02 4.88E+02 
3.000E-03 1.14E+00 6.31E-02 4.25E+02 0.00E+00 0.00E+00 4.26E+02 4.25E+02 
4.000E-03 9.07E-01 8.41E-02 1.94E+02 0.00E+00 0.00E+00 1.95E+02 1.94E+02 
5.000E-03 7.33E-01 1.00E-01 1.04E+02 0.00E+00 0.00E+00 1.05E+02 1.04E+02 
6.000E-03 6.05E-01 1.13E-01 6.22E+01 0.00E+00 0.00E+00 6.29E+01 6.23E+01 
8.000E-03 4.36E-01 1.31E-01 2.71E+01 0.00E+00 0.00E+00 2.77E+01 2.72E+01 
1.000E-02 3.32E-01 1.42E-01 1.41E+01 0.00E+00 0.00E+00 1.45E+01 1.42E+01 
1.500E-02 1.94E-01 1.58E-01 4.17E+00 0.00E+00 0.00E+00 4.52E+00 4.33E+00 
2.000E-02 1.29E-01 1.66E-01 1.73E+00 0.00E+00 0.00E+00 2.03E+00 1.90E+00 
3.000E-02 6.84E-02 1.73E-01 4.92E-01 0.00E+00 0.00E+00 7.33E-01 6.65E-01 
4.000E-02 4.25E-02 1.74E-01 1.99E-01 0.00E+00 0.00E+00 4.15E-01 3.72E-01 
5.000E-02 2.89E-02 1.72E-01 9.79E-02 0.00E+00 0.00E+00 2.99E-01 2.70E-01 
6.000E-02 2.09E-02 1.69E-01 5.47E-02 0.00E+00 0.00E+00 2.45E-01 2.24E-01 
8.000E-02 1.24E-02 1.63E-01 2.18E-02 0.00E+00 0.00E+00 1.97E-01 1.84E-01 
1.000E-01 8.14E-03 1.56E-01 1.06E-02 0.00E+00 0.00E+00 1.75E-01 1.67E-01 
1.500E-01 3.75E-03 1.42E-01 2.91E-03 0.00E+00 0.00E+00 1.48E-01 1.45E-01 
2.000E-01 2.14E-03 1.30E-01 1.17E-03 0.00E+00 0.00E+00 1.34E-01 1.31E-01 
3.000E-01 9.65E-04 1.14E-01 3.39E-04 0.00E+00 0.00E+00 1.15E-01 1.14E-01 
4.000E-01 5.46E-04 1.02E-01 1.47E-04 0.00E+00 0.00E+00 1.03E-01 1.02E-01 
5.000E-01 3.50E-04 9.32E-02 7.97E-05 0.00E+00 0.00E+00 9.36E-02 9.32E-02 
6.000E-01 2.43E-04 8.62E-02 4.98E-05 0.00E+00 0.00E+00 8.65E-02 8.62E-02 
8.000E-01 1.37E-04 7.58E-02 2.52E-05 0.00E+00 0.00E+00 7.59E-02 7.58E-02 
1.000E+00 8.78E-05 6.81E-02 1.57E-05 0.00E+00 0.00E+00 6.82E-02 6.82E-02 
1.022E+00 8.40E-05 6.74E-02 1.48E-05 0.00E+00 0.00E+00 6.75E-02 6.74E-02 
1.250E+00 5.62E-05 6.09E-02 1.00E-05 2.25E-05 0.00E+00 6.10E-02 6.10E-02 
1.500E+00 3.90E-05 5.54E-02 7.25E-06 1.23E-04 0.00E+00 5.55E-02 5.55E-02 
2.000E+00 2.20E-05 4.73E-02 4.52E-06 4.87E-04 0.00E+00 4.78E-02 4.78E-02 
2.044E+00 2.10E-05 4.67E-02 4.37E-06 5.24E-04 0.00E+00 4.72E-02 4.72E-02 
3.000E+00 9.76E-06 3.72E-02 2.49E-06 1.39E-03 1.30E-05 3.86E-02 3.86E-02 
4.000E+00 5.49E-06 3.10E-02 1.70E-06 2.24E-03 5.31E-05 3.33E-02 3.33E-02 
5.000E+00 3.51E-06 2.68E-02 1.28E-06 3.01E-03 1.06E-04 2.99E-02 2.99E-02 
6.000E+00 2.44E-06 2.37E-02 1.03E-06 3.69E-03 1.63E-04 2.75E-02 2.75E-02 
