Density

1.087

Photon    Coherent Incoher. Photoel. Nuclear  Electron Tot. w/  Tot. wo/ 
Energy    Scatter. Scatter. Absorb.  Pr. Prd. Pr. Prd. Coherent Coherent 

1.000E-03 1.53E+00 1.28E-02 3.80E+03 0.00E+00 0.00E+00 3.80E+03 3.80E+03 
1.035E-03 1.52E+00 1.36E-02 3.47E+03 0.00E+00 0.00E+00 3.47E+03 3.47E+03 
1.072E-03 1.51E+00 1.45E-02 3.16E+03 0.00E+00 0.00E+00 3.16E+03 3.16E+03 
1.072E-03 1.51E+00 1.45E-02 3.46E+03 0.00E+00 0.00E+00 3.46E+03 3.46E+03 
1.500E-03 1.42E+00 2.56E-02 1.44E+03 0.00E+00 0.00E+00 1.44E+03 1.44E+03 
2.000E-03 1.28E+00 3.98E-02 6.49E+02 0.00E+00 0.00E+00 6.51E+02 6.49E+02 
2.822E-03 1.07E+00 6.24E-02 2.44E+02 0.00E+00 0.00E+00 2.45E+02 2.44E+02 
2.822E-03 1.07E+00 6.24E-02 3.59E+02 0.00E+00 0.00E+00 3.60E+02 3.59E+02 
3.000E-03 1.02E+00 6.69E-02 3.09E+02 0.00E+00 0.00E+00 3.10E+02 3.09E+02 
4.000E-03 8.08E-01 8.92E-02 1.38E+02 0.00E+00 0.00E+00 1.39E+02 1.38E+02 
5.000E-03 6.46E-01 1.06E-01 7.33E+01 0.00E+00 0.00E+00 7.40E+01 7.34E+01 
6.000E-03 5.28E-01 1.19E-01 4.32E+01 0.00E+00 0.00E+00 4.39E+01 4.34E+01 
8.000E-03 3.74E-01 1.37E-01 1.86E+01 0.00E+00 0.00E+00 1.91E+01 1.87E+01 
1.000E-02 2.82E-01 1.48E-01 9.53E+00 0.00E+00 0.00E+00 9.96E+00 9.68E+00 
1.500E-02 1.64E-01 1.64E-01 2.78E+00 0.00E+00 0.00E+00 3.11E+00 2.94E+00 
2.000E-02 1.09E-01 1.72E-01 1.14E+00 0.00E+00 0.00E+00 1.42E+00 1.31E+00 
3.000E-02 5.77E-02 1.78E-01 3.20E-01 0.00E+00 0.00E+00 5.55E-01 4.98E-01 
4.000E-02 3.56E-02 1.78E-01 1.28E-01 0.00E+00 0.00E+00 3.42E-01 3.06E-01 
5.000E-02 2.42E-02 1.76E-01 6.28E-02 0.00E+00 0.00E+00 2.63E-01 2.39E-01 
6.000E-02 1.74E-02 1.73E-01 3.50E-02 0.00E+00 0.00E+00 2.25E-01 2.08E-01 
8.000E-02 1.03E-02 1.66E-01 1.38E-02 0.00E+00 0.00E+00 1.90E-01 1.80E-01 
1.000E-01 6.75E-03 1.59E-01 6.73E-03 0.00E+00 0.00E+00 1.73E-01 1.66E-01 
1.500E-01 3.10E-03 1.45E-01 1.83E-03 0.00E+00 0.00E+00 1.49E-01 1.46E-01 
2.000E-01 1.77E-03 1.33E-01 7.34E-04 0.00E+00 0.00E+00 1.35E-01 1.34E-01 
3.000E-01 7.94E-04 1.16E-01 2.11E-04 0.00E+00 0.00E+00 1.17E-01 1.16E-01 
4.000E-01 4.49E-04 1.04E-01 9.12E-05 0.00E+00 0.00E+00 1.04E-01 1.04E-01 
5.000E-01 2.88E-04 9.49E-02 4.94E-05 0.00E+00 0.00E+00 9.52E-02 9.49E-02 
6.000E-01 2.00E-04 8.78E-02 3.09E-05 0.00E+00 0.00E+00 8.80E-02 8.78E-02 
8.000E-01 1.13E-04 7.72E-02 1.56E-05 0.00E+00 0.00E+00 7.73E-02 7.72E-02 
1.000E+00 7.21E-05 6.94E-02 9.72E-06 0.00E+00 0.00E+00 6.95E-02 6.94E-02 
1.022E+00 6.91E-05 6.87E-02 9.15E-06 0.00E+00 0.00E+00 6.87E-02 6.87E-02 
1.250E+00 4.62E-05 6.20E-02 6.20E-06 2.01E-05 0.00E+00 6.21E-02 6.21E-02 
1.500E+00 3.21E-05 5.64E-02 4.49E-06 1.11E-04 0.00E+00 5.65E-02 5.65E-02 
2.000E+00 1.80E-05 4.81E-02 2.80E-06 4.39E-04 0.00E+00 4.86E-02 4.86E-02 
2.044E+00 1.73E-05 4.75E-02 2.71E-06 4.73E-04 0.00E+00 4.80E-02 4.80E-02 
3.000E+00 8.02E-06 3.79E-02 1.55E-06 1.25E-03 1.32E-05 3.91E-02 3.91E-02 
4.000E+00 4.51E-06 3.16E-02 1.06E-06 2.03E-03 5.41E-05 3.37E-02 3.37E-02 
5.000E+00 2.89E-06 2.73E-02 7.98E-07 2.72E-03 1.08E-04 3.01E-02 3.01E-02 
6.000E+00 2.00E-06 2.41E-02 6.39E-07 3.34E-03 1.66E-04 2.76E-02 2.76E-02 
