Density

1.05

Photon    Coherent Incoher. Photoel. Nuclear  Electron Tot. w/  Tot. wo/ 
Energy    Scatter. Scatter. Absorb.  Pr. Prd. Pr. Prd. Coherent Coherent 

1.000E-03 1.349E+00 1.337E-02 3.833E+03 0.000E+00 0.000E+00 3.835E+03 3.833E+03 
1.035E-03 1.341E+00 1.422E-02 3.494E+03 0.000E+00 0.000E+00 3.495E+03 3.494E+03 
1.072E-03 1.333E+00 1.513E-02 3.184E+03 0.000E+00 0.000E+00 3.186E+03 3.184E+03 
1.072E-03 1.333E+00 1.513E-02 3.196E+03 0.000E+00 0.000E+00 3.198E+03 3.196E+03 
1.500E-03 1.243E+00 2.699E-02 1.294E+03 0.000E+00 0.000E+00 1.295E+03 1.294E+03 
2.000E-03 1.122E+00 4.211E-02 5.789E+02 0.000E+00 0.000E+00 5.801E+02 5.790E+02 
2.145E-03 1.085E+00 4.652E-02 4.741E+02 0.000E+00 0.000E+00 4.752E+02 4.741E+02 
2.145E-03 1.085E+00 4.652E-02 4.785E+02 0.000E+00 0.000E+00 4.797E+02 4.786E+02 
2.303E-03 1.046E+00 5.124E-02 3.910E+02 0.000E+00 0.000E+00 3.920E+02 3.910E+02 
2.472E-03 1.005E+00 5.621E-02 3.190E+02 0.000E+00 0.000E+00 3.201E+02 3.191E+02 
2.472E-03 1.005E+00 5.621E-02 3.227E+02 0.000E+00 0.000E+00 3.238E+02 3.228E+02 
2.641E-03 9.644E-01 6.108E-02 2.667E+02 0.000E+00 0.000E+00 2.677E+02 2.668E+02 
2.822E-03 9.222E-01 6.612E-02 2.202E+02 0.000E+00 0.000E+00 2.212E+02 2.202E+02 
2.822E-03 9.222E-01 6.612E-02 2.231E+02 0.000E+00 0.000E+00 2.241E+02 2.232E+02 
3.000E-03 8.823E-01 7.089E-02 1.870E+02 0.000E+00 0.000E+00 1.880E+02 1.871E+02 
3.607E-03 7.570E-01 8.576E-02 1.089E+02 0.000E+00 0.000E+00 1.098E+02 1.090E+02 
3.607E-03 7.570E-01 8.576E-02 1.111E+02 0.000E+00 0.000E+00 1.119E+02 1.112E+02 
4.000E-03 6.864E-01 9.420E-02 8.182E+01 0.000E+00 0.000E+00 8.260E+01 8.192E+01 
5.000E-03 5.411E-01 1.119E-01 4.204E+01 0.000E+00 0.000E+00 4.269E+01 4.215E+01 
6.000E-03 4.363E-01 1.252E-01 2.423E+01 0.000E+00 0.000E+00 2.479E+01 2.435E+01 
8.000E-03 3.031E-01 1.429E-01 1.005E+01 0.000E+00 0.000E+00 1.049E+01 1.019E+01 
1.000E-02 2.263E-01 1.538E-01 5.031E+00 0.000E+00 0.000E+00 5.411E+00 5.185E+00 
1.500E-02 1.314E-01 1.688E-01 1.405E+00 0.000E+00 0.000E+00 1.705E+00 1.574E+00 
2.000E-02 8.727E-02 1.763E-01 5.613E-01 0.000E+00 0.000E+00 8.249E-01 7.376E-01 
3.000E-02 4.619E-02 1.818E-01 1.516E-01 0.000E+00 0.000E+00 3.796E-01 3.334E-01 
4.000E-02 2.830E-02 1.816E-01 5.941E-02 0.000E+00 0.000E+00 2.694E-01 2.411E-01 
5.000E-02 1.907E-02 1.792E-01 2.862E-02 0.000E+00 0.000E+00 2.269E-01 2.078E-01 
6.000E-02 1.371E-02 1.759E-01 1.573E-02 0.000E+00 0.000E+00 2.054E-01 1.917E-01 
8.000E-02 8.041E-03 1.687E-01 6.109E-03 0.000E+00 0.000E+00 1.828E-01 1.748E-01 
1.000E-01 5.268E-03 1.616E-01 2.935E-03 0.000E+00 0.000E+00 1.698E-01 1.645E-01 
1.500E-01 2.405E-03 1.464E-01 7.808E-04 0.000E+00 0.000E+00 1.496E-01 1.472E-01 
2.000E-01 1.367E-03 1.345E-01 3.096E-04 0.000E+00 0.000E+00 1.361E-01 1.348E-01 
3.000E-01 6.124E-04 1.172E-01 8.783E-05 0.000E+00 0.000E+00 1.179E-01 1.173E-01 
4.000E-01 3.454E-04 1.051E-01 3.769E-05 0.000E+00 0.000E+00 1.055E-01 1.051E-01 
5.000E-01 2.214E-04 9.600E-02 2.034E-05 0.000E+00 0.000E+00 9.625E-02 9.602E-02 
6.000E-01 1.539E-04 8.882E-02 1.268E-05 0.000E+00 0.000E+00 8.898E-02 8.883E-02 
8.000E-01 8.662E-05 7.805E-02 6.404E-06 0.000E+00 0.000E+00 7.815E-02 7.806E-02 
1.000E+00 5.545E-05 7.020E-02 3.981E-06 0.000E+00 0.000E+00 7.026E-02 7.020E-02 
1.022E+00 5.310E-05 6.946E-02 3.717E-06 0.000E+00 0.000E+00 6.952E-02 6.946E-02 
1.250E+00 3.551E-05 6.277E-02 2.523E-06 1.754E-05 0.000E+00 6.283E-02 6.279E-02 
1.500E+00 2.465E-05 5.705E-02 1.829E-06 9.692E-05 0.000E+00 5.717E-02 5.714E-02 
2.000E+00 1.387E-05 4.869E-02 1.149E-06 3.857E-04 0.000E+00 4.909E-02 4.908E-02 
2.044E+00 1.328E-05 4.808E-02 1.111E-06 4.156E-04 0.000E+00 4.851E-02 4.849E-02 
3.000E+00 6.164E-06 3.830E-02 6.403E-07 1.102E-03 1.340E-05 3.942E-02 3.942E-02 
4.000E+00 3.468E-06 3.195E-02 4.388E-07 1.788E-03 5.471E-05 3.380E-02 3.379E-02 
5.000E+00 2.219E-06 2.759E-02 3.324E-07 2.398E-03 1.090E-04 3.010E-02 3.010E-02 
6.000E+00 1.541E-06 2.439E-02 2.670E-07 2.947E-03 1.674E-04 2.750E-02 2.750E-02 
