Density

1.04

Photon    Coherent Incoher. Photoel. Nuclear  Electron Tot. w/  Tot. wo/ 
Energy    Scatter. Scatter. Absorb.  Pr. Prd. Pr. Prd. Coherent Coherent 

1.000E-03 1.35E+00 1.34E-02 3.85E+03 0.00E+00 0.00E+00 3.85E+03 3.85E+03 
1.035E-03 1.34E+00 1.42E-02 3.51E+03 0.00E+00 0.00E+00 3.51E+03 3.51E+03 
1.072E-03 1.33E+00 1.51E-02 3.20E+03 0.00E+00 0.00E+00 3.20E+03 3.20E+03 
1.072E-03 1.33E+00 1.51E-02 3.21E+03 0.00E+00 0.00E+00 3.21E+03 3.21E+03 
1.500E-03 1.24E+00 2.70E-02 1.30E+03 0.00E+00 0.00E+00 1.30E+03 1.30E+03 
2.000E-03 1.12E+00 4.21E-02 5.81E+02 0.00E+00 0.00E+00 5.82E+02 5.81E+02 
2.145E-03 1.08E+00 4.65E-02 4.76E+02 0.00E+00 0.00E+00 4.77E+02 4.76E+02 
2.145E-03 1.08E+00 4.65E-02 4.78E+02 0.00E+00 0.00E+00 4.79E+02 4.78E+02 
2.303E-03 1.04E+00 5.12E-02 3.91E+02 0.00E+00 0.00E+00 3.92E+02 3.91E+02 
2.472E-03 1.00E+00 5.62E-02 3.19E+02 0.00E+00 0.00E+00 3.20E+02 3.19E+02 
2.472E-03 1.00E+00 5.62E-02 3.22E+02 0.00E+00 0.00E+00 3.23E+02 3.22E+02 
3.000E-03 8.81E-01 7.09E-02 1.84E+02 0.00E+00 0.00E+00 1.85E+02 1.84E+02 
3.607E-03 7.56E-01 8.57E-02 1.07E+02 0.00E+00 0.00E+00 1.08E+02 1.07E+02 
3.607E-03 7.56E-01 8.57E-02 1.09E+02 0.00E+00 0.00E+00 1.10E+02 1.09E+02 
4.000E-03 6.85E-01 9.42E-02 8.04E+01 0.00E+00 0.00E+00 8.11E+01 8.05E+01 
5.000E-03 5.40E-01 1.12E-01 4.12E+01 0.00E+00 0.00E+00 4.19E+01 4.13E+01 
6.000E-03 4.35E-01 1.25E-01 2.37E+01 0.00E+00 0.00E+00 2.43E+01 2.38E+01 
8.000E-03 3.02E-01 1.43E-01 9.81E+00 0.00E+00 0.00E+00 1.03E+01 9.96E+00 
1.000E-02 2.25E-01 1.54E-01 4.91E+00 0.00E+00 0.00E+00 5.29E+00 5.06E+00 
1.500E-02 1.31E-01 1.69E-01 1.37E+00 0.00E+00 0.00E+00 1.67E+00 1.54E+00 
2.000E-02 8.68E-02 1.76E-01 5.45E-01 0.00E+00 0.00E+00 8.08E-01 7.21E-01 
3.000E-02 4.60E-02 1.82E-01 1.47E-01 0.00E+00 0.00E+00 3.75E-01 3.29E-01 
4.000E-02 2.81E-02 1.82E-01 5.74E-02 0.00E+00 0.00E+00 2.67E-01 2.39E-01 
5.000E-02 1.90E-02 1.79E-01 2.76E-02 0.00E+00 0.00E+00 2.26E-01 2.07E-01 
6.000E-02 1.36E-02 1.76E-01 1.52E-02 0.00E+00 0.00E+00 2.05E-01 1.91E-01 
8.000E-02 7.99E-03 1.69E-01 5.88E-03 0.00E+00 0.00E+00 1.83E-01 1.75E-01 
1.000E-01 5.24E-03 1.62E-01 2.82E-03 0.00E+00 0.00E+00 1.70E-01 1.64E-01 
1.500E-01 2.39E-03 1.46E-01 7.50E-04 0.00E+00 0.00E+00 1.50E-01 1.47E-01 
2.000E-01 1.36E-03 1.34E-01 2.97E-04 0.00E+00 0.00E+00 1.36E-01 1.35E-01 
3.000E-01 6.09E-04 1.17E-01 8.42E-05 0.00E+00 0.00E+00 1.18E-01 1.17E-01 
4.000E-01 3.43E-04 1.05E-01 3.61E-05 0.00E+00 0.00E+00 1.05E-01 1.05E-01 
5.000E-01 2.20E-04 9.60E-02 1.95E-05 0.00E+00 0.00E+00 9.63E-02 9.60E-02 
6.000E-01 1.53E-04 8.88E-02 1.21E-05 0.00E+00 0.00E+00 8.90E-02 8.88E-02 
8.000E-01 8.61E-05 7.81E-02 6.13E-06 0.00E+00 0.00E+00 7.82E-02 7.81E-02 
1.000E+00 5.51E-05 7.02E-02 3.81E-06 0.00E+00 0.00E+00 7.03E-02 7.02E-02 
1.022E+00 5.28E-05 6.95E-02 3.55E-06 0.00E+00 0.00E+00 6.95E-02 6.95E-02 
1.250E+00 3.53E-05 6.28E-02 2.41E-06 1.75E-05 0.00E+00 6.28E-02 6.28E-02 
1.500E+00 2.45E-05 5.71E-02 1.75E-06 9.67E-05 0.00E+00 5.72E-02 5.72E-02 
2.000E+00 1.38E-05 4.87E-02 1.10E-06 3.85E-04 0.00E+00 4.91E-02 4.91E-02 
2.044E+00 1.32E-05 4.81E-02 1.06E-06 4.15E-04 0.00E+00 4.85E-02 4.85E-02 
3.000E+00 6.12E-06 3.83E-02 6.13E-07 1.10E-03 1.34E-05 3.94E-02 3.94E-02 
4.000E+00 3.45E-06 3.20E-02 4.20E-07 1.78E-03 5.47E-05 3.38E-02 3.38E-02 
5.000E+00 2.20E-06 2.76E-02 3.19E-07 2.39E-03 1.09E-04 3.01E-02 3.01E-02 
6.000E+00 1.53E-06 2.44E-02 2.56E-07 2.94E-03 1.67E-04 2.75E-02 2.75E-02 
