Density

1.03

Photon    Coherent Incoher. Photoel. Nuclear  Electron Tot. w/  Tot. wo/ 
Energy    Scatter. Scatter. Absorb.  Pr. Prd. Pr. Prd. Coherent Coherent 

1.000E-03 1.33E+00 1.35E-02 3.79E+03 0.00E+00 0.00E+00 3.79E+03 3.79E+03 
1.035E-03 1.33E+00 1.43E-02 3.45E+03 0.00E+00 0.00E+00 3.45E+03 3.45E+03 
1.072E-03 1.32E+00 1.53E-02 3.15E+03 0.00E+00 0.00E+00 3.15E+03 3.15E+03 
1.072E-03 1.32E+00 1.53E-02 3.15E+03 0.00E+00 0.00E+00 3.15E+03 3.15E+03 
1.500E-03 1.23E+00 2.72E-02 1.27E+03 0.00E+00 0.00E+00 1.28E+03 1.27E+03 
2.000E-03 1.11E+00 4.24E-02 5.70E+02 0.00E+00 0.00E+00 5.71E+02 5.70E+02 
2.145E-03 1.07E+00 4.69E-02 4.67E+02 0.00E+00 0.00E+00 4.68E+02 4.67E+02 
2.145E-03 1.07E+00 4.69E-02 4.69E+02 0.00E+00 0.00E+00 4.70E+02 4.69E+02 
2.303E-03 1.03E+00 5.16E-02 3.83E+02 0.00E+00 0.00E+00 3.84E+02 3.83E+02 
2.472E-03 9.92E-01 5.66E-02 3.12E+02 0.00E+00 0.00E+00 3.13E+02 3.12E+02 
2.472E-03 9.92E-01 5.66E-02 3.14E+02 0.00E+00 0.00E+00 3.15E+02 3.14E+02 
2.641E-03 9.51E-01 6.15E-02 2.60E+02 0.00E+00 0.00E+00 2.61E+02 2.60E+02 
2.822E-03 9.09E-01 6.66E-02 2.14E+02 0.00E+00 0.00E+00 2.15E+02 2.14E+02 
2.822E-03 9.09E-01 6.66E-02 2.17E+02 0.00E+00 0.00E+00 2.18E+02 2.17E+02 
3.000E-03 8.70E-01 7.14E-02 1.82E+02 0.00E+00 0.00E+00 1.83E+02 1.82E+02 
3.607E-03 7.46E-01 8.63E-02 1.06E+02 0.00E+00 0.00E+00 1.07E+02 1.06E+02 
3.607E-03 7.46E-01 8.63E-02 1.07E+02 0.00E+00 0.00E+00 1.08E+02 1.07E+02 
4.000E-03 6.76E-01 9.47E-02 7.86E+01 0.00E+00 0.00E+00 7.94E+01 7.87E+01 
5.000E-03 5.32E-01 1.12E-01 4.03E+01 0.00E+00 0.00E+00 4.10E+01 4.04E+01 
6.000E-03 4.29E-01 1.26E-01 2.32E+01 0.00E+00 0.00E+00 2.38E+01 2.33E+01 
8.000E-03 2.98E-01 1.43E-01 9.59E+00 0.00E+00 0.00E+00 1.00E+01 9.73E+00 
1.000E-02 2.22E-01 1.54E-01 4.79E+00 0.00E+00 0.00E+00 5.17E+00 4.95E+00 
1.500E-02 1.29E-01 1.69E-01 1.33E+00 0.00E+00 0.00E+00 1.63E+00 1.50E+00 
2.000E-02 8.58E-02 1.77E-01 5.31E-01 0.00E+00 0.00E+00 7.94E-01 7.08E-01 
3.000E-02 4.54E-02 1.82E-01 1.43E-01 0.00E+00 0.00E+00 3.71E-01 3.25E-01 
4.000E-02 2.78E-02 1.82E-01 5.59E-02 0.00E+00 0.00E+00 2.66E-01 2.38E-01 
5.000E-02 1.87E-02 1.79E-01 2.69E-02 0.00E+00 0.00E+00 2.25E-01 2.06E-01 
6.000E-02 1.35E-02 1.76E-01 1.48E-02 0.00E+00 0.00E+00 2.04E-01 1.91E-01 
8.000E-02 7.89E-03 1.69E-01 5.72E-03 0.00E+00 0.00E+00 1.82E-01 1.75E-01 
1.000E-01 5.17E-03 1.62E-01 2.75E-03 0.00E+00 0.00E+00 1.70E-01 1.65E-01 
1.500E-01 2.36E-03 1.47E-01 7.29E-04 0.00E+00 0.00E+00 1.50E-01 1.47E-01 
2.000E-01 1.34E-03 1.35E-01 2.89E-04 0.00E+00 0.00E+00 1.36E-01 1.35E-01 
3.000E-01 6.00E-04 1.17E-01 8.18E-05 0.00E+00 0.00E+00 1.18E-01 1.17E-01 
4.000E-01 3.39E-04 1.05E-01 3.51E-05 0.00E+00 0.00E+00 1.06E-01 1.05E-01 
5.000E-01 2.17E-04 9.61E-02 1.89E-05 0.00E+00 0.00E+00 9.63E-02 9.61E-02 
6.000E-01 1.51E-04 8.89E-02 1.18E-05 0.00E+00 0.00E+00 8.91E-02 8.89E-02 
8.000E-01 8.49E-05 7.81E-02 5.95E-06 0.00E+00 0.00E+00 7.82E-02 7.81E-02 
1.000E+00 5.44E-05 7.03E-02 3.70E-06 0.00E+00 0.00E+00 7.03E-02 7.03E-02 
1.022E+00 5.20E-05 6.95E-02 3.45E-06 0.00E+00 0.00E+00 6.96E-02 6.95E-02 
1.250E+00 3.48E-05 6.28E-02 2.34E-06 1.73E-05 0.00E+00 6.29E-02 6.29E-02 
1.500E+00 2.42E-05 5.71E-02 1.70E-06 9.59E-05 0.00E+00 5.72E-02 5.72E-02 
2.000E+00 1.36E-05 4.87E-02 1.07E-06 3.82E-04 0.00E+00 4.91E-02 4.91E-02 
2.044E+00 1.30E-05 4.81E-02 1.03E-06 4.11E-04 0.00E+00 4.85E-02 4.85E-02 
3.000E+00 6.04E-06 3.83E-02 5.96E-07 1.09E-03 1.34E-05 3.94E-02 3.94E-02 
4.000E+00 3.40E-06 3.20E-02 4.09E-07 1.77E-03 5.48E-05 3.38E-02 3.38E-02 
5.000E+00 2.18E-06 2.76E-02 3.10E-07 2.37E-03 1.09E-04 3.01E-02 3.01E-02 
6.000E+00 1.51E-06 2.44E-02 2.49E-07 2.92E-03 1.68E-04 2.75E-02 2.75E-02 
