Density

1.03

Photon    Coherent Incoher. Photoel. Nuclear  Electron Tot. w/  Tot. wo/ 
Energy    Scatter. Scatter. Absorb.  Pr. Prd. Pr. Prd. Coherent Coherent 

1.000E-03 1.212E+00 1.471E-02 3.072E+03 0.000E+00 0.000E+00 3.073E+03 3.072E+03 
1.500E-03 1.103E+00 2.940E-02 1.016E+03 0.000E+00 0.000E+00 1.017E+03 1.016E+03 
2.000E-03 9.821E-01 4.543E-02 4.506E+02 0.000E+00 0.000E+00 4.516E+02 4.506E+02 
2.145E-03 9.467E-01 5.006E-02 3.682E+02 0.000E+00 0.000E+00 3.692E+02 3.683E+02 
2.145E-03 9.467E-01 5.006E-02 3.705E+02 0.000E+00 0.000E+00 3.715E+02 3.705E+02 
2.303E-03 9.091E-01 5.498E-02 3.020E+02 0.000E+00 0.000E+00 3.030E+02 3.021E+02 
2.472E-03 8.698E-01 6.015E-02 2.459E+02 0.000E+00 0.000E+00 2.469E+02 2.460E+02 
2.472E-03 8.698E-01 6.015E-02 2.496E+02 0.000E+00 0.000E+00 2.506E+02 2.497E+02 
2.641E-03 8.317E-01 6.517E-02 2.060E+02 0.000E+00 0.000E+00 2.069E+02 2.060E+02 
2.822E-03 7.927E-01 7.035E-02 1.698E+02 0.000E+00 0.000E+00 1.706E+02 1.698E+02 
2.822E-03 7.927E-01 7.035E-02 1.727E+02 0.000E+00 0.000E+00 1.735E+02 1.728E+02 
3.000E-03 7.560E-01 7.522E-02 1.446E+02 0.000E+00 0.000E+00 1.454E+02 1.447E+02 
3.607E-03 6.435E-01 9.025E-02 8.394E+01 0.000E+00 0.000E+00 8.467E+01 8.403E+01 
3.607E-03 6.435E-01 9.025E-02 8.607E+01 0.000E+00 0.000E+00 8.681E+01 8.616E+01 
4.000E-03 5.816E-01 9.864E-02 6.330E+01 0.000E+00 0.000E+00 6.398E+01 6.340E+01 
5.000E-03 4.571E-01 1.159E-01 3.243E+01 0.000E+00 0.000E+00 3.300E+01 3.254E+01 
6.000E-03 3.693E-01 1.285E-01 1.865E+01 0.000E+00 0.000E+00 1.915E+01 1.878E+01 
7.112E-03 3.001E-01 1.389E-01 1.108E+01 0.000E+00 0.000E+00 1.152E+01 1.122E+01 
7.112E-03 3.001E-01 1.389E-01 1.143E+01 0.000E+00 0.000E+00 1.187E+01 1.157E+01 
8.000E-03 2.592E-01 1.452E-01 7.974E+00 0.000E+00 0.000E+00 8.379E+00 8.119E+00 
1.000E-02 1.956E-01 1.557E-01 4.001E+00 0.000E+00 0.000E+00 4.352E+00 4.156E+00 
1.500E-02 1.150E-01 1.706E-01 1.122E+00 0.000E+00 0.000E+00 1.408E+00 1.293E+00 
2.000E-02 7.628E-02 1.781E-01 4.501E-01 0.000E+00 0.000E+00 7.044E-01 6.282E-01 
3.000E-02 4.013E-02 1.832E-01 1.223E-01 0.000E+00 0.000E+00 3.456E-01 3.055E-01 
4.000E-02 2.453E-02 1.826E-01 4.816E-02 0.000E+00 0.000E+00 2.553E-01 2.307E-01 
5.000E-02 1.651E-02 1.799E-01 2.328E-02 0.000E+00 0.000E+00 2.197E-01 2.032E-01 
6.000E-02 1.185E-02 1.764E-01 1.283E-02 0.000E+00 0.000E+00 2.011E-01 1.893E-01 
8.000E-02 6.941E-03 1.690E-01 5.009E-03 0.000E+00 0.000E+00 1.809E-01 1.740E-01 
1.000E-01 4.540E-03 1.618E-01 2.415E-03 0.000E+00 0.000E+00 1.687E-01 1.642E-01 
1.500E-01 2.069E-03 1.465E-01 6.466E-04 0.000E+00 0.000E+00 1.492E-01 1.471E-01 
2.000E-01 1.175E-03 1.345E-01 2.575E-04 0.000E+00 0.000E+00 1.359E-01 1.348E-01 
3.000E-01 5.261E-04 1.172E-01 7.338E-05 0.000E+00 0.000E+00 1.178E-01 1.173E-01 
4.000E-01 2.967E-04 1.051E-01 3.158E-05 0.000E+00 0.000E+00 1.054E-01 1.051E-01 
5.000E-01 1.902E-04 9.600E-02 1.708E-05 0.000E+00 0.000E+00 9.620E-02 9.601E-02 
6.000E-01 1.322E-04 8.881E-02 1.065E-05 0.000E+00 0.000E+00 8.895E-02 8.882E-02 
8.000E-01 7.438E-05 7.803E-02 5.385E-06 0.000E+00 0.000E+00 7.811E-02 7.804E-02 
1.000E+00 4.762E-05 7.018E-02 3.348E-06 0.000E+00 0.000E+00 7.023E-02 7.018E-02 
1.022E+00 4.560E-05 6.945E-02 3.128E-06 0.000E+00 0.000E+00 6.950E-02 6.945E-02 
1.250E+00 3.049E-05 6.275E-02 2.122E-06 1.592E-05 0.000E+00 6.280E-02 6.277E-02 
1.500E+00 2.117E-05 5.704E-02 1.538E-06 8.809E-05 0.000E+00 5.715E-02 5.713E-02 
2.000E+00 1.191E-05 4.868E-02 9.641E-07 3.507E-04 0.000E+00 4.904E-02 4.903E-02 
2.044E+00 1.140E-05 4.807E-02 9.324E-07 3.780E-04 0.000E+00 4.846E-02 4.845E-02 
3.000E+00 5.294E-06 3.829E-02 5.360E-07 1.003E-03 1.340E-05 3.931E-02 3.931E-02 
4.000E+00 2.978E-06 3.194E-02 3.667E-07 1.627E-03 5.470E-05 3.363E-02 3.362E-02 
5.000E+00 1.906E-06 2.759E-02 2.775E-07 2.183E-03 1.090E-04 2.988E-02 2.988E-02 
6.000E+00 1.323E-06 2.438E-02 2.227E-07 2.683E-03 1.674E-04 2.723E-02 2.723E-02 
