Density

1.41

Photon    Coherent Incoher. Photoel. Nuclear  Electron Tot. w/  Tot. wo/ 
Energy    Scatter. Scatter. Absorb.  Pr. Prd. Pr. Prd. Coherent Coherent 

1.000E-03 1.66E+00 1.34E-02 3.48E+03 0.00E+00 0.00E+00 3.48E+03 3.48E+03 
1.035E-03 1.65E+00 1.42E-02 3.17E+03 0.00E+00 0.00E+00 3.17E+03 3.17E+03 
1.072E-03 1.64E+00 1.50E-02 2.89E+03 0.00E+00 0.00E+00 2.89E+03 2.89E+03 
1.072E-03 1.64E+00 1.50E-02 2.89E+03 0.00E+00 0.00E+00 2.90E+03 2.89E+03 
1.183E-03 1.60E+00 1.77E-02 2.23E+03 0.00E+00 0.00E+00 2.23E+03 2.23E+03 
1.305E-03 1.57E+00 2.08E-02 1.71E+03 0.00E+00 0.00E+00 1.71E+03 1.71E+03 
1.305E-03 1.57E+00 2.08E-02 1.71E+03 0.00E+00 0.00E+00 1.72E+03 1.71E+03 
1.500E-03 1.51E+00 2.60E-02 1.18E+03 0.00E+00 0.00E+00 1.18E+03 1.18E+03 
2.000E-03 1.36E+00 3.95E-02 5.28E+02 0.00E+00 0.00E+00 5.30E+02 5.29E+02 
2.145E-03 1.32E+00 4.34E-02 4.33E+02 0.00E+00 0.00E+00 4.35E+02 4.33E+02 
2.145E-03 1.32E+00 4.34E-02 5.67E+02 0.00E+00 0.00E+00 5.68E+02 5.67E+02 
2.303E-03 1.27E+00 4.76E-02 4.68E+02 0.00E+00 0.00E+00 4.69E+02 4.68E+02 
2.472E-03 1.22E+00 5.20E-02 3.86E+02 0.00E+00 0.00E+00 3.88E+02 3.86E+02 
2.472E-03 1.22E+00 5.20E-02 3.92E+02 0.00E+00 0.00E+00 3.93E+02 3.92E+02 
2.641E-03 1.17E+00 5.63E-02 3.27E+02 0.00E+00 0.00E+00 3.28E+02 3.27E+02 
2.822E-03 1.13E+00 6.07E-02 2.73E+02 0.00E+00 0.00E+00 2.74E+02 2.73E+02 
2.822E-03 1.13E+00 6.07E-02 2.74E+02 0.00E+00 0.00E+00 2.76E+02 2.75E+02 
3.000E-03 1.08E+00 6.49E-02 2.32E+02 0.00E+00 0.00E+00 2.33E+02 2.32E+02 
3.607E-03 9.40E-01 7.81E-02 1.38E+02 0.00E+00 0.00E+00 1.39E+02 1.38E+02 
3.607E-03 9.40E-01 7.81E-02 1.39E+02 0.00E+00 0.00E+00 1.40E+02 1.39E+02 
4.000E-03 8.60E-01 8.56E-02 1.03E+02 0.00E+00 0.00E+00 1.04E+02 1.04E+02 
4.038E-03 8.53E-01 8.63E-02 1.01E+02 0.00E+00 0.00E+00 1.02E+02 1.01E+02 
4.038E-03 8.53E-01 8.63E-02 2.19E+02 0.00E+00 0.00E+00 2.20E+02 2.19E+02 
5.000E-03 6.96E-01 1.01E-01 1.25E+02 0.00E+00 0.00E+00 1.25E+02 1.25E+02 
6.000E-03 5.77E-01 1.13E-01 7.56E+01 0.00E+00 0.00E+00 7.63E+01 7.57E+01 
8.000E-03 4.20E-01 1.30E-01 3.39E+01 0.00E+00 0.00E+00 3.44E+01 3.40E+01 
1.000E-02 3.25E-01 1.40E-01 1.79E+01 0.00E+00 0.00E+00 1.84E+01 1.81E+01 
1.500E-02 1.96E-01 1.56E-01 5.48E+00 0.00E+00 0.00E+00 5.83E+00 5.64E+00 
2.000E-02 1.31E-01 1.65E-01 2.32E+00 0.00E+00 0.00E+00 2.62E+00 2.49E+00 
3.000E-02 6.96E-02 1.71E-01 6.76E-01 0.00E+00 0.00E+00 9.17E-01 8.48E-01 
4.000E-02 4.33E-02 1.72E-01 2.78E-01 0.00E+00 0.00E+00 4.93E-01 4.50E-01 
5.000E-02 2.96E-02 1.70E-01 1.39E-01 0.00E+00 0.00E+00 3.38E-01 3.09E-01 
6.000E-02 2.15E-02 1.67E-01 7.82E-02 0.00E+00 0.00E+00 2.67E-01 2.46E-01 
8.000E-02 1.27E-02 1.61E-01 3.15E-02 0.00E+00 0.00E+00 2.05E-01 1.93E-01 
1.000E-01 8.42E-03 1.55E-01 1.55E-02 0.00E+00 0.00E+00 1.79E-01 1.70E-01 
1.500E-01 3.89E-03 1.40E-01 4.31E-03 0.00E+00 0.00E+00 1.49E-01 1.45E-01 
2.000E-01 2.23E-03 1.29E-01 1.75E-03 0.00E+00 0.00E+00 1.33E-01 1.31E-01 
3.000E-01 1.00E-03 1.13E-01 5.11E-04 0.00E+00 0.00E+00 1.14E-01 1.13E-01 
4.000E-01 5.69E-04 1.01E-01 2.23E-04 0.00E+00 0.00E+00 1.02E-01 1.01E-01 
5.000E-01 3.65E-04 9.23E-02 1.21E-04 0.00E+00 0.00E+00 9.28E-02 9.24E-02 
6.000E-01 2.54E-04 8.54E-02 7.60E-05 0.00E+00 0.00E+00 8.57E-02 8.54E-02 
8.000E-01 1.43E-04 7.50E-02 3.86E-05 0.00E+00 0.00E+00 7.52E-02 7.51E-02 
1.000E+00 9.16E-05 6.75E-02 2.40E-05 0.00E+00 0.00E+00 6.76E-02 6.75E-02 
1.022E+00 8.78E-05 6.68E-02 2.27E-05 0.00E+00 0.00E+00 6.69E-02 6.68E-02 
1.250E+00 5.87E-05 6.03E-02 1.54E-05 2.27E-05 0.00E+00 6.04E-02 6.04E-02 
1.500E+00 4.08E-05 5.48E-02 1.11E-05 1.24E-04 0.00E+00 5.50E-02 5.50E-02 
2.000E+00 2.29E-05 4.68E-02 6.89E-06 4.88E-04 0.00E+00 4.73E-02 4.73E-02 
2.044E+00 2.20E-05 4.62E-02 6.66E-06 5.26E-04 0.00E+00 4.68E-02 4.68E-02 
3.000E+00 1.02E-05 3.68E-02 3.78E-06 1.39E-03 1.29E-05 3.82E-02 3.82E-02 
4.000E+00 5.74E-06 3.07E-02 2.57E-06 2.24E-03 5.26E-05 3.30E-02 3.30E-02 
5.000E+00 3.67E-06 2.65E-02 1.93E-06 3.00E-03 1.05E-04 2.96E-02 2.96E-02 
6.000E+00 2.55E-06 2.34E-02 1.54E-06 3.69E-03 1.61E-04 2.73E-02 2.73E-02 
