Density

1.84

Photon    Coherent Incoher. Photoel. Nuclear  Electron Tot. w/  Tot. wo/ 
Energy    Scatter. Scatter. Absorb.  Pr. Prd. Pr. Prd. Coherent Coherent 

1.000E-03 1.895E+00 1.286E-02 3.763E+03 0.000E+00 0.000E+00 3.765E+03 3.763E+03 
1.500E-03 1.726E+00 2.413E-02 1.273E+03 0.000E+00 0.000E+00 1.275E+03 1.273E+03 
2.000E-03 1.555E+00 3.609E-02 5.753E+02 0.000E+00 0.000E+00 5.769E+02 5.753E+02 
2.822E-03 1.297E+00 5.512E-02 2.170E+02 0.000E+00 0.000E+00 2.184E+02 2.171E+02 
2.822E-03 1.297E+00 5.512E-02 2.178E+02 0.000E+00 0.000E+00 2.191E+02 2.178E+02 
3.000E-03 1.248E+00 5.895E-02 1.830E+02 0.000E+00 0.000E+00 1.843E+02 1.831E+02 
4.000E-03 1.003E+00 7.801E-02 7.963E+01 0.000E+00 0.000E+00 8.071E+01 7.971E+01 
4.038E-03 9.946E-01 7.865E-02 7.747E+01 0.000E+00 0.000E+00 7.855E+01 7.755E+01 
4.038E-03 9.946E-01 7.865E-02 3.220E+02 0.000E+00 0.000E+00 3.231E+02 3.221E+02 
5.000E-03 8.175E-01 9.290E-02 1.864E+02 0.000E+00 0.000E+00 1.874E+02 1.865E+02 
6.000E-03 6.805E-01 1.044E-01 1.142E+02 0.000E+00 0.000E+00 1.150E+02 1.143E+02 
8.000E-03 5.010E-01 1.204E-01 5.199E+01 0.000E+00 0.000E+00 5.261E+01 5.211E+01 
1.000E-02 3.922E-01 1.310E-01 2.778E+01 0.000E+00 0.000E+00 2.831E+01 2.791E+01 
1.500E-02 2.415E-01 1.473E-01 8.639E+00 0.000E+00 0.000E+00 9.028E+00 8.787E+00 
2.000E-02 1.619E-01 1.563E-01 3.697E+00 0.000E+00 0.000E+00 4.015E+00 3.853E+00 
3.000E-02 8.647E-02 1.639E-01 1.090E+00 0.000E+00 0.000E+00 1.340E+00 1.254E+00 
4.000E-02 5.403E-02 1.651E-01 4.513E-01 0.000E+00 0.000E+00 6.703E-01 6.163E-01 
5.000E-02 3.710E-02 1.637E-01 2.260E-01 0.000E+00 0.000E+00 4.269E-01 3.898E-01 
6.000E-02 2.706E-02 1.614E-01 1.280E-01 0.000E+00 0.000E+00 3.164E-01 2.894E-01 
8.000E-02 1.616E-02 1.555E-01 5.186E-02 0.000E+00 0.000E+00 2.235E-01 2.074E-01 
1.000E-01 1.070E-02 1.495E-01 2.568E-02 0.000E+00 0.000E+00 1.858E-01 1.751E-01 
1.500E-01 4.969E-03 1.360E-01 7.164E-03 0.000E+00 0.000E+00 1.481E-01 1.431E-01 
2.000E-01 2.853E-03 1.251E-01 2.923E-03 0.000E+00 0.000E+00 1.309E-01 1.280E-01 
3.000E-01 1.291E-03 1.092E-01 8.558E-04 0.000E+00 0.000E+00 1.113E-01 1.101E-01 
4.000E-01 7.317E-04 9.798E-02 3.739E-04 0.000E+00 0.000E+00 9.909E-02 9.835E-02 
5.000E-01 4.700E-04 8.956E-02 2.039E-04 0.000E+00 0.000E+00 9.023E-02 8.976E-02 
6.000E-01 3.270E-04 8.287E-02 1.278E-04 0.000E+00 0.000E+00 8.333E-02 8.300E-02 
8.000E-01 1.843E-04 7.283E-02 6.489E-05 0.000E+00 0.000E+00 7.308E-02 7.290E-02 
1.000E+00 1.181E-04 6.551E-02 4.034E-05 0.000E+00 0.000E+00 6.567E-02 6.555E-02 
1.022E+00 1.131E-04 6.483E-02 3.817E-05 0.000E+00 0.000E+00 6.498E-02 6.486E-02 
1.250E+00 7.562E-05 5.859E-02 2.585E-05 2.662E-05 0.000E+00 5.871E-02 5.864E-02 
1.500E+00 5.253E-05 5.325E-02 1.868E-05 1.434E-04 0.000E+00 5.347E-02 5.341E-02 
2.000E+00 2.956E-05 4.545E-02 1.159E-05 5.648E-04 0.000E+00 4.605E-02 4.602E-02 
2.044E+00 2.830E-05 4.488E-02 1.120E-05 6.087E-04 0.000E+00 4.553E-02 4.550E-02 
3.000E+00 1.314E-05 3.575E-02 6.347E-06 1.599E-03 1.251E-05 3.738E-02 3.737E-02 
4.000E+00 7.394E-06 2.983E-02 4.299E-06 2.581E-03 5.108E-05 3.247E-02 3.246E-02 
5.000E+00 4.731E-06 2.576E-02 3.233E-06 3.454E-03 1.018E-04 2.932E-02 2.931E-02 
6.000E+00 3.286E-06 2.277E-02 2.583E-06 4.236E-03 1.563E-04 2.717E-02 2.716E-02 
