Density

1.09

Photon    Coherent Incoher. Photoel. Nuclear  Electron Tot. w/  Tot. wo/ 
Energy    Scatter. Scatter. Absorb.  Pr. Prd. Pr. Prd. Coherent Coherent 

1.000E-03 1.28E+00 1.39E-02 3.45E+03 0.00E+00 0.00E+00 3.46E+03 3.45E+03 
1.035E-03 1.28E+00 1.47E-02 3.15E+03 0.00E+00 0.00E+00 3.15E+03 3.15E+03 
1.072E-03 1.27E+00 1.57E-02 2.87E+03 0.00E+00 0.00E+00 2.87E+03 2.87E+03 
1.072E-03 1.27E+00 1.57E-02 2.88E+03 0.00E+00 0.00E+00 2.88E+03 2.88E+03 
1.500E-03 1.18E+00 2.78E-02 1.16E+03 0.00E+00 0.00E+00 1.16E+03 1.16E+03 
2.000E-03 1.05E+00 4.33E-02 5.16E+02 0.00E+00 0.00E+00 5.17E+02 5.16E+02 
2.145E-03 1.02E+00 4.77E-02 4.22E+02 0.00E+00 0.00E+00 4.23E+02 4.22E+02 
2.145E-03 1.02E+00 4.77E-02 4.24E+02 0.00E+00 0.00E+00 4.25E+02 4.24E+02 
2.303E-03 9.80E-01 5.25E-02 3.46E+02 0.00E+00 0.00E+00 3.47E+02 3.46E+02 
2.472E-03 9.39E-01 5.75E-02 2.82E+02 0.00E+00 0.00E+00 2.83E+02 2.82E+02 
2.472E-03 9.39E-01 5.75E-02 2.88E+02 0.00E+00 0.00E+00 2.89E+02 2.88E+02 
2.641E-03 9.00E-01 6.24E-02 2.38E+02 0.00E+00 0.00E+00 2.39E+02 2.38E+02 
2.822E-03 8.59E-01 6.75E-02 1.96E+02 0.00E+00 0.00E+00 1.97E+02 1.96E+02 
2.822E-03 8.59E-01 6.75E-02 2.01E+02 0.00E+00 0.00E+00 2.01E+02 2.01E+02 
3.000E-03 8.21E-01 7.23E-02 1.68E+02 0.00E+00 0.00E+00 1.69E+02 1.68E+02 
3.607E-03 7.02E-01 8.71E-02 9.79E+01 0.00E+00 0.00E+00 9.87E+01 9.80E+01 
3.607E-03 7.02E-01 8.71E-02 9.90E+01 0.00E+00 0.00E+00 9.98E+01 9.91E+01 
4.000E-03 6.35E-01 9.55E-02 7.28E+01 0.00E+00 0.00E+00 7.36E+01 7.29E+01 
5.000E-03 5.00E-01 1.13E-01 3.74E+01 0.00E+00 0.00E+00 3.80E+01 3.75E+01 
6.000E-03 4.04E-01 1.26E-01 2.15E+01 0.00E+00 0.00E+00 2.20E+01 2.16E+01 
8.000E-03 2.82E-01 1.43E-01 8.91E+00 0.00E+00 0.00E+00 9.33E+00 9.05E+00 
1.000E-02 2.11E-01 1.54E-01 4.45E+00 0.00E+00 0.00E+00 4.82E+00 4.61E+00 
1.500E-02 1.23E-01 1.69E-01 1.24E+00 0.00E+00 0.00E+00 1.53E+00 1.41E+00 
2.000E-02 8.20E-02 1.76E-01 4.95E-01 0.00E+00 0.00E+00 7.54E-01 6.72E-01 
3.000E-02 4.32E-02 1.82E-01 1.34E-01 0.00E+00 0.00E+00 3.58E-01 3.15E-01 
4.000E-02 2.65E-02 1.81E-01 5.23E-02 0.00E+00 0.00E+00 2.60E-01 2.34E-01 
5.000E-02 1.78E-02 1.79E-01 2.52E-02 0.00E+00 0.00E+00 2.22E-01 2.04E-01 
6.000E-02 1.28E-02 1.75E-01 1.38E-02 0.00E+00 0.00E+00 2.02E-01 1.89E-01 
8.000E-02 7.50E-03 1.68E-01 5.38E-03 0.00E+00 0.00E+00 1.81E-01 1.73E-01 
1.000E-01 4.91E-03 1.61E-01 2.58E-03 0.00E+00 0.00E+00 1.68E-01 1.64E-01 
1.500E-01 2.24E-03 1.46E-01 6.87E-04 0.00E+00 0.00E+00 1.49E-01 1.46E-01 
2.000E-01 1.27E-03 1.34E-01 2.72E-04 0.00E+00 0.00E+00 1.35E-01 1.34E-01 
3.000E-01 5.70E-04 1.17E-01 7.72E-05 0.00E+00 0.00E+00 1.17E-01 1.17E-01 
4.000E-01 3.21E-04 1.05E-01 3.31E-05 0.00E+00 0.00E+00 1.05E-01 1.05E-01 
5.000E-01 2.06E-04 9.56E-02 1.79E-05 0.00E+00 0.00E+00 9.58E-02 9.56E-02 
6.000E-01 1.43E-04 8.84E-02 1.11E-05 0.00E+00 0.00E+00 8.86E-02 8.84E-02 
8.000E-01 8.06E-05 7.77E-02 5.63E-06 0.00E+00 0.00E+00 7.78E-02 7.77E-02 
1.000E+00 5.16E-05 6.99E-02 3.50E-06 0.00E+00 0.00E+00 6.99E-02 6.99E-02 
1.022E+00 4.94E-05 6.91E-02 3.26E-06 0.00E+00 0.00E+00 6.92E-02 6.91E-02 
1.250E+00 3.30E-05 6.25E-02 2.22E-06 1.68E-05 0.00E+00 6.25E-02 6.25E-02 
1.500E+00 2.29E-05 5.68E-02 1.61E-06 9.27E-05 0.00E+00 5.69E-02 5.69E-02 
2.000E+00 1.29E-05 4.85E-02 1.01E-06 3.69E-04 0.00E+00 4.89E-02 4.88E-02 
2.044E+00 1.24E-05 4.79E-02 9.76E-07 3.98E-04 0.00E+00 4.83E-02 4.83E-02 
3.000E+00 5.74E-06 3.81E-02 5.62E-07 1.06E-03 1.33E-05 3.92E-02 3.92E-02 
4.000E+00 3.23E-06 3.18E-02 3.86E-07 1.71E-03 5.45E-05 3.36E-02 3.36E-02 
5.000E+00 2.06E-06 2.75E-02 2.92E-07 2.30E-03 1.09E-04 2.99E-02 2.99E-02 
6.000E+00 1.43E-06 2.43E-02 2.35E-07 2.82E-03 1.67E-04 2.73E-02 2.73E-02 
