Density

1.09

Photon    Coherent Incoher. Photoel. Nuclear  Electron Tot. w/  Tot. wo/ 
Energy    Scatter. Scatter. Absorb.  Pr. Prd. Pr. Prd. Coherent Coherent 

1.000E-03 1.30E+00 1.37E-02 3.57E+03 0.00E+00 0.00E+00 3.57E+03 3.57E+03 
1.035E-03 1.29E+00 1.45E-02 3.25E+03 0.00E+00 0.00E+00 3.25E+03 3.25E+03 
1.072E-03 1.29E+00 1.54E-02 2.96E+03 0.00E+00 0.00E+00 2.96E+03 2.96E+03 
1.072E-03 1.29E+00 1.54E-02 2.98E+03 0.00E+00 0.00E+00 2.98E+03 2.98E+03 
1.500E-03 1.20E+00 2.75E-02 1.20E+03 0.00E+00 0.00E+00 1.20E+03 1.20E+03 
2.000E-03 1.07E+00 4.28E-02 5.35E+02 0.00E+00 0.00E+00 5.36E+02 5.35E+02 
2.145E-03 1.04E+00 4.72E-02 4.38E+02 0.00E+00 0.00E+00 4.39E+02 4.38E+02 
2.145E-03 1.04E+00 4.72E-02 4.40E+02 0.00E+00 0.00E+00 4.41E+02 4.40E+02 
2.303E-03 9.99E-01 5.19E-02 3.59E+02 0.00E+00 0.00E+00 3.60E+02 3.59E+02 
2.472E-03 9.58E-01 5.69E-02 2.93E+02 0.00E+00 0.00E+00 2.94E+02 2.93E+02 
2.472E-03 9.58E-01 5.69E-02 2.97E+02 0.00E+00 0.00E+00 2.98E+02 2.97E+02 
2.641E-03 9.19E-01 6.18E-02 2.45E+02 0.00E+00 0.00E+00 2.46E+02 2.45E+02 
2.822E-03 8.77E-01 6.69E-02 2.02E+02 0.00E+00 0.00E+00 2.03E+02 2.02E+02 
2.822E-03 8.77E-01 6.69E-02 2.07E+02 0.00E+00 0.00E+00 2.07E+02 2.07E+02 
3.000E-03 8.39E-01 7.16E-02 1.73E+02 0.00E+00 0.00E+00 1.74E+02 1.73E+02 
3.607E-03 7.18E-01 8.65E-02 1.01E+02 0.00E+00 0.00E+00 1.02E+02 1.01E+02 
3.607E-03 7.18E-01 8.65E-02 1.02E+02 0.00E+00 0.00E+00 1.03E+02 1.02E+02 
4.000E-03 6.50E-01 9.48E-02 7.50E+01 0.00E+00 0.00E+00 7.57E+01 7.51E+01 
5.000E-03 5.12E-01 1.12E-01 3.84E+01 0.00E+00 0.00E+00 3.91E+01 3.86E+01 
6.000E-03 4.13E-01 1.25E-01 2.21E+01 0.00E+00 0.00E+00 2.27E+01 2.23E+01 
8.000E-03 2.88E-01 1.43E-01 9.16E+00 0.00E+00 0.00E+00 9.59E+00 9.30E+00 
1.000E-02 2.16E-01 1.53E-01 4.58E+00 0.00E+00 0.00E+00 4.95E+00 4.73E+00 
1.500E-02 1.26E-01 1.68E-01 1.28E+00 0.00E+00 0.00E+00 1.57E+00 1.44E+00 
2.000E-02 8.34E-02 1.76E-01 5.09E-01 0.00E+00 0.00E+00 7.68E-01 6.85E-01 
3.000E-02 4.41E-02 1.81E-01 1.37E-01 0.00E+00 0.00E+00 3.63E-01 3.19E-01 
4.000E-02 2.70E-02 1.81E-01 5.37E-02 0.00E+00 0.00E+00 2.62E-01 2.35E-01 
5.000E-02 1.82E-02 1.79E-01 2.58E-02 0.00E+00 0.00E+00 2.23E-01 2.04E-01 
6.000E-02 1.30E-02 1.75E-01 1.42E-02 0.00E+00 0.00E+00 2.03E-01 1.89E-01 
8.000E-02 7.65E-03 1.68E-01 5.51E-03 0.00E+00 0.00E+00 1.81E-01 1.73E-01 
1.000E-01 5.01E-03 1.61E-01 2.64E-03 0.00E+00 0.00E+00 1.69E-01 1.64E-01 
1.500E-01 2.28E-03 1.46E-01 7.03E-04 0.00E+00 0.00E+00 1.49E-01 1.46E-01 
2.000E-01 1.30E-03 1.34E-01 2.79E-04 0.00E+00 0.00E+00 1.35E-01 1.34E-01 
3.000E-01 5.81E-04 1.17E-01 7.90E-05 0.00E+00 0.00E+00 1.17E-01 1.17E-01 
4.000E-01 3.28E-04 1.05E-01 3.39E-05 0.00E+00 0.00E+00 1.05E-01 1.05E-01 
5.000E-01 2.10E-04 9.56E-02 1.83E-05 0.00E+00 0.00E+00 9.58E-02 9.56E-02 
6.000E-01 1.46E-04 8.84E-02 1.14E-05 0.00E+00 0.00E+00 8.86E-02 8.84E-02 
8.000E-01 8.22E-05 7.77E-02 5.75E-06 0.00E+00 0.00E+00 7.78E-02 7.77E-02 
1.000E+00 5.26E-05 6.99E-02 3.58E-06 0.00E+00 0.00E+00 6.99E-02 6.99E-02 
1.022E+00 5.04E-05 6.91E-02 3.34E-06 0.00E+00 0.00E+00 6.92E-02 6.91E-02 
1.250E+00 3.37E-05 6.25E-02 2.27E-06 1.70E-05 0.00E+00 6.25E-02 6.25E-02 
1.500E+00 2.34E-05 5.68E-02 1.64E-06 9.39E-05 0.00E+00 5.69E-02 5.69E-02 
2.000E+00 1.32E-05 4.85E-02 1.03E-06 3.74E-04 0.00E+00 4.89E-02 4.88E-02 
2.044E+00 1.26E-05 4.79E-02 9.98E-07 4.03E-04 0.00E+00 4.83E-02 4.83E-02 
3.000E+00 5.85E-06 3.81E-02 5.75E-07 1.07E-03 1.33E-05 3.92E-02 3.92E-02 
4.000E+00 3.29E-06 3.18E-02 3.94E-07 1.73E-03 5.45E-05 3.36E-02 3.36E-02 
5.000E+00 2.11E-06 2.75E-02 2.99E-07 2.33E-03 1.09E-04 2.99E-02 2.99E-02 
6.000E+00 1.46E-06 2.43E-02 2.40E-07 2.86E-03 1.67E-04 2.73E-02 2.73E-02 
