Density

1.09

Photon    Coherent Incoher. Photoel. Nuclear  Electron Tot. w/  Tot. wo/ 
Energy    Scatter. Scatter. Absorb.  Pr. Prd. Pr. Prd. Coherent Coherent 

1.000E-03 1.32E+00 1.35E-02 3.68E+03 0.00E+00 0.00E+00 3.68E+03 3.68E+03 
1.035E-03 1.31E+00 1.44E-02 3.35E+03 0.00E+00 0.00E+00 3.36E+03 3.35E+03 
1.072E-03 1.31E+00 1.53E-02 3.06E+03 0.00E+00 0.00E+00 3.06E+03 3.06E+03 
1.072E-03 1.31E+00 1.53E-02 3.07E+03 0.00E+00 0.00E+00 3.07E+03 3.07E+03 
1.500E-03 1.22E+00 2.72E-02 1.24E+03 0.00E+00 0.00E+00 1.24E+03 1.24E+03 
2.000E-03 1.09E+00 4.24E-02 5.54E+02 0.00E+00 0.00E+00 5.55E+02 5.54E+02 
2.145E-03 1.06E+00 4.68E-02 4.53E+02 0.00E+00 0.00E+00 4.54E+02 4.53E+02 
2.145E-03 1.06E+00 4.68E-02 4.55E+02 0.00E+00 0.00E+00 4.56E+02 4.55E+02 
2.303E-03 1.02E+00 5.15E-02 3.72E+02 0.00E+00 0.00E+00 3.73E+02 3.72E+02 
2.472E-03 9.78E-01 5.65E-02 3.03E+02 0.00E+00 0.00E+00 3.04E+02 3.03E+02 
2.472E-03 9.78E-01 5.65E-02 3.07E+02 0.00E+00 0.00E+00 3.08E+02 3.07E+02 
2.641E-03 9.38E-01 6.14E-02 2.54E+02 0.00E+00 0.00E+00 2.55E+02 2.54E+02 
2.822E-03 8.96E-01 6.64E-02 2.09E+02 0.00E+00 0.00E+00 2.10E+02 2.09E+02 
2.822E-03 8.96E-01 6.64E-02 2.14E+02 0.00E+00 0.00E+00 2.15E+02 2.14E+02 
3.000E-03 8.57E-01 7.12E-02 1.79E+02 0.00E+00 0.00E+00 1.80E+02 1.79E+02 
3.607E-03 7.34E-01 8.60E-02 1.04E+02 0.00E+00 0.00E+00 1.05E+02 1.04E+02 
3.607E-03 7.34E-01 8.60E-02 1.05E+02 0.00E+00 0.00E+00 1.06E+02 1.05E+02 
4.000E-03 6.65E-01 9.44E-02 7.76E+01 0.00E+00 0.00E+00 7.83E+01 7.76E+01 
5.000E-03 5.24E-01 1.12E-01 3.98E+01 0.00E+00 0.00E+00 4.04E+01 3.99E+01 
6.000E-03 4.22E-01 1.25E-01 2.29E+01 0.00E+00 0.00E+00 2.35E+01 2.30E+01 
8.000E-03 2.94E-01 1.43E-01 9.48E+00 0.00E+00 0.00E+00 9.92E+00 9.63E+00 
1.000E-02 2.20E-01 1.53E-01 4.74E+00 0.00E+00 0.00E+00 5.12E+00 4.90E+00 
1.500E-02 1.28E-01 1.68E-01 1.32E+00 0.00E+00 0.00E+00 1.62E+00 1.49E+00 
2.000E-02 8.50E-02 1.76E-01 5.28E-01 0.00E+00 0.00E+00 7.88E-01 7.03E-01 
3.000E-02 4.49E-02 1.81E-01 1.42E-01 0.00E+00 0.00E+00 3.69E-01 3.24E-01 
4.000E-02 2.75E-02 1.81E-01 5.57E-02 0.00E+00 0.00E+00 2.64E-01 2.37E-01 
5.000E-02 1.85E-02 1.79E-01 2.68E-02 0.00E+00 0.00E+00 2.24E-01 2.05E-01 
6.000E-02 1.33E-02 1.75E-01 1.47E-02 0.00E+00 0.00E+00 2.03E-01 1.90E-01 
8.000E-02 7.81E-03 1.68E-01 5.71E-03 0.00E+00 0.00E+00 1.82E-01 1.74E-01 
1.000E-01 5.11E-03 1.61E-01 2.74E-03 0.00E+00 0.00E+00 1.69E-01 1.64E-01 
1.500E-01 2.33E-03 1.46E-01 7.29E-04 0.00E+00 0.00E+00 1.49E-01 1.47E-01 
2.000E-01 1.33E-03 1.34E-01 2.89E-04 0.00E+00 0.00E+00 1.36E-01 1.34E-01 
3.000E-01 5.94E-04 1.17E-01 8.19E-05 0.00E+00 0.00E+00 1.17E-01 1.17E-01 
4.000E-01 3.35E-04 1.05E-01 3.51E-05 0.00E+00 0.00E+00 1.05E-01 1.05E-01 
5.000E-01 2.15E-04 9.57E-02 1.90E-05 0.00E+00 0.00E+00 9.59E-02 9.57E-02 
6.000E-01 1.49E-04 8.85E-02 1.18E-05 0.00E+00 0.00E+00 8.87E-02 8.85E-02 
8.000E-01 8.40E-05 7.78E-02 5.97E-06 0.00E+00 0.00E+00 7.79E-02 7.78E-02 
1.000E+00 5.38E-05 6.99E-02 3.71E-06 0.00E+00 0.00E+00 7.00E-02 6.99E-02 
1.022E+00 5.15E-05 6.92E-02 3.46E-06 0.00E+00 0.00E+00 6.93E-02 6.92E-02 
1.250E+00 3.44E-05 6.25E-02 2.35E-06 1.72E-05 0.00E+00 6.26E-02 6.26E-02 
1.500E+00 2.39E-05 5.68E-02 1.70E-06 9.52E-05 0.00E+00 5.70E-02 5.69E-02 
2.000E+00 1.34E-05 4.85E-02 1.07E-06 3.79E-04 0.00E+00 4.89E-02 4.89E-02 
2.044E+00 1.29E-05 4.79E-02 1.04E-06 4.08E-04 0.00E+00 4.83E-02 4.83E-02 
3.000E+00 5.98E-06 3.82E-02 5.97E-07 1.08E-03 1.34E-05 3.93E-02 3.93E-02 
4.000E+00 3.36E-06 3.18E-02 4.09E-07 1.76E-03 5.45E-05 3.36E-02 3.36E-02 
5.000E+00 2.15E-06 2.75E-02 3.10E-07 2.36E-03 1.09E-04 3.00E-02 3.00E-02 
6.000E+00 1.49E-06 2.43E-02 2.49E-07 2.89E-03 1.67E-04 2.74E-02 2.74E-02 
