Density

1.03

Photon    Coherent Incoher. Photoel. Nuclear  Electron Tot. w/  Tot. wo/ 
Energy    Scatter. Scatter. Absorb.  Pr. Prd. Pr. Prd. Coherent Coherent 

1.000E-03 1.334E+00 1.349E-02 3.788E+03 0.000E+00 0.000E+00 3.790E+03 3.788E+03 
1.035E-03 1.326E+00 1.435E-02 3.453E+03 0.000E+00 0.000E+00 3.454E+03 3.453E+03 
1.072E-03 1.318E+00 1.526E-02 3.147E+03 0.000E+00 0.000E+00 3.148E+03 3.147E+03 
1.072E-03 1.318E+00 1.526E-02 3.152E+03 0.000E+00 0.000E+00 3.154E+03 3.152E+03 
1.500E-03 1.229E+00 2.722E-02 1.275E+03 0.000E+00 0.000E+00 1.276E+03 1.275E+03 
2.000E-03 1.108E+00 4.244E-02 5.700E+02 0.000E+00 0.000E+00 5.711E+02 5.700E+02 
2.145E-03 1.071E+00 4.688E-02 4.667E+02 0.000E+00 0.000E+00 4.678E+02 4.667E+02 
2.145E-03 1.071E+00 4.688E-02 4.689E+02 0.000E+00 0.000E+00 4.700E+02 4.690E+02 
2.303E-03 1.033E+00 5.163E-02 3.829E+02 0.000E+00 0.000E+00 3.840E+02 3.830E+02 
2.472E-03 9.915E-01 5.663E-02 3.124E+02 0.000E+00 0.000E+00 3.134E+02 3.124E+02 
2.472E-03 9.915E-01 5.663E-02 3.142E+02 0.000E+00 0.000E+00 3.153E+02 3.143E+02 
2.641E-03 9.513E-01 6.152E-02 2.595E+02 0.000E+00 0.000E+00 2.605E+02 2.596E+02 
2.822E-03 9.095E-01 6.658E-02 2.141E+02 0.000E+00 0.000E+00 2.151E+02 2.142E+02 
2.822E-03 9.095E-01 6.658E-02 2.170E+02 0.000E+00 0.000E+00 2.180E+02 2.171E+02 
3.000E-03 8.698E-01 7.137E-02 1.819E+02 0.000E+00 0.000E+00 1.828E+02 1.819E+02 
3.607E-03 7.458E-01 8.628E-02 1.058E+02 0.000E+00 0.000E+00 1.066E+02 1.059E+02 
3.607E-03 7.458E-01 8.628E-02 1.069E+02 0.000E+00 0.000E+00 1.077E+02 1.070E+02 
4.000E-03 6.760E-01 9.474E-02 7.865E+01 0.000E+00 0.000E+00 7.942E+01 7.874E+01 
5.000E-03 5.325E-01 1.125E-01 4.032E+01 0.000E+00 0.000E+00 4.096E+01 4.043E+01 
6.000E-03 4.291E-01 1.257E-01 2.320E+01 0.000E+00 0.000E+00 2.375E+01 2.332E+01 
8.000E-03 2.980E-01 1.434E-01 9.591E+00 0.000E+00 0.000E+00 1.003E+01 9.734E+00 
1.000E-02 2.225E-01 1.543E-01 4.793E+00 0.000E+00 0.000E+00 5.169E+00 4.947E+00 
1.500E-02 1.292E-01 1.692E-01 1.333E+00 0.000E+00 0.000E+00 1.632E+00 1.503E+00 
2.000E-02 8.582E-02 1.767E-01 5.314E-01 0.000E+00 0.000E+00 7.940E-01 7.081E-01 
3.000E-02 4.540E-02 1.822E-01 1.431E-01 0.000E+00 0.000E+00 3.707E-01 3.253E-01 
4.000E-02 2.780E-02 1.819E-01 5.594E-02 0.000E+00 0.000E+00 2.657E-01 2.379E-01 
5.000E-02 1.872E-02 1.795E-01 2.690E-02 0.000E+00 0.000E+00 2.251E-01 2.064E-01 
6.000E-02 1.346E-02 1.762E-01 1.477E-02 0.000E+00 0.000E+00 2.044E-01 1.909E-01 
8.000E-02 7.892E-03 1.689E-01 5.725E-03 0.000E+00 0.000E+00 1.825E-01 1.746E-01 
1.000E-01 5.169E-03 1.618E-01 2.747E-03 0.000E+00 0.000E+00 1.697E-01 1.645E-01 
1.500E-01 2.359E-03 1.466E-01 7.292E-04 0.000E+00 0.000E+00 1.496E-01 1.473E-01 
2.000E-01 1.340E-03 1.346E-01 2.888E-04 0.000E+00 0.000E+00 1.362E-01 1.349E-01 
3.000E-01 6.004E-04 1.173E-01 8.180E-05 0.000E+00 0.000E+00 1.180E-01 1.174E-01 
4.000E-01 3.387E-04 1.052E-01 3.507E-05 0.000E+00 0.000E+00 1.056E-01 1.052E-01 
5.000E-01 2.170E-04 9.610E-02 1.892E-05 0.000E+00 0.000E+00 9.633E-02 9.612E-02 
6.000E-01 1.508E-04 8.890E-02 1.179E-05 0.000E+00 0.000E+00 8.907E-02 8.892E-02 
8.000E-01 8.491E-05 7.813E-02 5.953E-06 0.000E+00 0.000E+00 7.822E-02 7.814E-02 
1.000E+00 5.436E-05 7.027E-02 3.701E-06 0.000E+00 0.000E+00 7.033E-02 7.027E-02 
1.022E+00 5.205E-05 6.953E-02 3.452E-06 0.000E+00 0.000E+00 6.958E-02 6.953E-02 
1.250E+00 3.481E-05 6.283E-02 2.343E-06 1.734E-05 0.000E+00 6.289E-02 6.285E-02 
1.500E+00 2.417E-05 5.710E-02 1.700E-06 9.587E-05 0.000E+00 5.722E-02 5.720E-02 
2.000E+00 1.360E-05 4.874E-02 1.068E-06 3.815E-04 0.000E+00 4.914E-02 4.912E-02 
2.044E+00 1.301E-05 4.812E-02 1.033E-06 4.112E-04 0.000E+00 4.855E-02 4.854E-02 
3.000E+00 6.043E-06 3.834E-02 5.958E-07 1.091E-03 1.341E-05 3.945E-02 3.944E-02 
4.000E+00 3.400E-06 3.198E-02 4.086E-07 1.769E-03 5.477E-05 3.381E-02 3.380E-02 
5.000E+00 2.175E-06 2.762E-02 3.096E-07 2.373E-03 1.091E-04 3.010E-02 3.010E-02 
6.000E+00 1.511E-06 2.441E-02 2.488E-07 2.916E-03 1.676E-04 2.750E-02 2.749E-02 
