Density

1.015

Photon    Coherent Incoher. Photoel. Nuclear  Electron Tot. w/  Tot. wo/ 
Energy    Scatter. Scatter. Absorb.  Pr. Prd. Pr. Prd. Coherent Coherent 

1.000E-03 1.169E+00 1.487E-02 2.592E+03 0.000E+00 0.000E+00 2.594E+03 2.592E+03 
1.500E-03 1.052E+00 2.944E-02 8.443E+02 0.000E+00 0.000E+00 8.454E+02 8.443E+02 
2.000E-03 9.270E-01 4.517E-02 3.710E+02 0.000E+00 0.000E+00 3.720E+02 3.711E+02 
2.822E-03 7.386E-01 6.943E-02 1.354E+02 0.000E+00 0.000E+00 1.362E+02 1.354E+02 
2.822E-03 7.386E-01 6.943E-02 1.373E+02 0.000E+00 0.000E+00 1.381E+02 1.373E+02 
3.000E-03 7.031E-01 7.416E-02 1.147E+02 0.000E+00 0.000E+00 1.155E+02 1.148E+02 
4.000E-03 5.383E-01 9.678E-02 4.851E+01 0.000E+00 0.000E+00 4.914E+01 4.860E+01 
4.038E-03 5.331E-01 9.751E-02 4.714E+01 0.000E+00 0.000E+00 4.777E+01 4.724E+01 
4.038E-03 5.331E-01 9.751E-02 6.813E+01 0.000E+00 0.000E+00 6.876E+01 6.823E+01 
5.000E-03 4.240E-01 1.132E-01 3.709E+01 0.000E+00 0.000E+00 3.763E+01 3.721E+01 
6.000E-03 3.445E-01 1.252E-01 2.182E+01 0.000E+00 0.000E+00 2.229E+01 2.194E+01 
8.000E-03 2.458E-01 1.410E-01 9.356E+00 0.000E+00 0.000E+00 9.743E+00 9.497E+00 
1.000E-02 1.884E-01 1.512E-01 4.803E+00 0.000E+00 0.000E+00 5.142E+00 4.954E+00 
1.500E-02 1.129E-01 1.663E-01 1.402E+00 0.000E+00 0.000E+00 1.682E+00 1.569E+00 
2.000E-02 7.489E-02 1.741E-01 5.776E-01 0.000E+00 0.000E+00 8.266E-01 7.517E-01 
3.000E-02 3.927E-02 1.793E-01 1.626E-01 0.000E+00 0.000E+00 3.812E-01 3.419E-01 
4.000E-02 2.404E-02 1.787E-01 6.552E-02 0.000E+00 0.000E+00 2.682E-01 2.442E-01 
5.000E-02 1.621E-02 1.760E-01 3.221E-02 0.000E+00 0.000E+00 2.244E-01 2.082E-01 
6.000E-02 1.165E-02 1.726E-01 1.798E-02 0.000E+00 0.000E+00 2.023E-01 1.906E-01 
8.000E-02 6.833E-03 1.653E-01 7.146E-03 0.000E+00 0.000E+00 1.793E-01 1.725E-01 
1.000E-01 4.472E-03 1.583E-01 3.491E-03 0.000E+00 0.000E+00 1.662E-01 1.618E-01 
1.500E-01 2.040E-03 1.433E-01 9.545E-04 0.000E+00 0.000E+00 1.463E-01 1.442E-01 
2.000E-01 1.160E-03 1.316E-01 3.849E-04 0.000E+00 0.000E+00 1.331E-01 1.320E-01 
3.000E-01 5.199E-04 1.146E-01 1.112E-04 0.000E+00 0.000E+00 1.153E-01 1.148E-01 
4.000E-01 2.934E-04 1.028E-01 4.824E-05 0.000E+00 0.000E+00 1.031E-01 1.028E-01 
5.000E-01 1.881E-04 9.392E-02 2.620E-05 0.000E+00 0.000E+00 9.413E-02 9.395E-02 
6.000E-01 1.307E-04 8.689E-02 1.638E-05 0.000E+00 0.000E+00 8.703E-02 8.690E-02 
8.000E-01 7.359E-05 7.634E-02 8.302E-06 0.000E+00 0.000E+00 7.642E-02 7.635E-02 
1.000E+00 4.711E-05 6.865E-02 5.161E-06 0.000E+00 0.000E+00 6.871E-02 6.866E-02 
1.022E+00 4.511E-05 6.794E-02 4.852E-06 0.000E+00 0.000E+00 6.799E-02 6.795E-02 
1.250E+00 3.016E-05 6.139E-02 3.288E-06 1.561E-05 0.000E+00 6.144E-02 6.141E-02 
1.500E+00 2.095E-05 5.581E-02 2.379E-06 8.622E-05 0.000E+00 5.592E-02 5.590E-02 
2.000E+00 1.179E-05 4.762E-02 1.483E-06 3.430E-04 0.000E+00 4.797E-02 4.796E-02 
2.044E+00 1.128E-05 4.703E-02 1.434E-06 3.698E-04 0.000E+00 4.741E-02 4.740E-02 
3.000E+00 5.239E-06 3.746E-02 8.183E-07 9.803E-04 1.311E-05 3.846E-02 3.846E-02 
4.000E+00 2.947E-06 3.125E-02 5.569E-07 1.590E-03 5.351E-05 3.290E-02 3.289E-02 
5.000E+00 1.886E-06 2.699E-02 4.200E-07 2.133E-03 1.066E-04 2.923E-02 2.923E-02 
6.000E+00 1.310E-06 2.385E-02 3.363E-07 2.621E-03 1.638E-04 2.664E-02 2.664E-02 
