Density

1.06

Photon    Coherent Incoher. Photoel. Nuclear  Electron Tot. w/  Tot. wo/ 
Energy    Scatter. Scatter. Absorb.  Pr. Prd. Pr. Prd. Coherent Coherent 

1.000E-03 1.343E+00 1.339E-02 3.785E+03 0.000E+00 0.000E+00 3.787E+03 3.785E+03 
1.035E-03 1.336E+00 1.425E-02 3.450E+03 0.000E+00 0.000E+00 3.451E+03 3.450E+03 
1.072E-03 1.328E+00 1.515E-02 3.144E+03 0.000E+00 0.000E+00 3.145E+03 3.144E+03 
1.072E-03 1.328E+00 1.515E-02 3.150E+03 0.000E+00 0.000E+00 3.151E+03 3.150E+03 
1.500E-03 1.237E+00 2.702E-02 1.273E+03 0.000E+00 0.000E+00 1.275E+03 1.273E+03 
2.000E-03 1.115E+00 4.213E-02 5.695E+02 0.000E+00 0.000E+00 5.706E+02 5.695E+02 
2.145E-03 1.079E+00 4.654E-02 4.663E+02 0.000E+00 0.000E+00 4.674E+02 4.663E+02 
2.145E-03 1.079E+00 4.654E-02 4.730E+02 0.000E+00 0.000E+00 4.741E+02 4.730E+02 
2.303E-03 1.040E+00 5.125E-02 3.864E+02 0.000E+00 0.000E+00 3.875E+02 3.865E+02 
2.472E-03 9.986E-01 5.622E-02 3.154E+02 0.000E+00 0.000E+00 3.164E+02 3.154E+02 
2.472E-03 9.986E-01 5.622E-02 3.191E+02 0.000E+00 0.000E+00 3.201E+02 3.191E+02 
2.641E-03 9.581E-01 6.108E-02 2.637E+02 0.000E+00 0.000E+00 2.647E+02 2.638E+02 
2.822E-03 9.161E-01 6.611E-02 2.177E+02 0.000E+00 0.000E+00 2.187E+02 2.178E+02 
2.822E-03 9.161E-01 6.611E-02 2.206E+02 0.000E+00 0.000E+00 2.216E+02 2.207E+02 
3.000E-03 8.762E-01 7.087E-02 1.850E+02 0.000E+00 0.000E+00 1.859E+02 1.850E+02 
3.607E-03 7.515E-01 8.570E-02 1.078E+02 0.000E+00 0.000E+00 1.086E+02 1.078E+02 
3.607E-03 7.515E-01 8.570E-02 1.110E+02 0.000E+00 0.000E+00 1.118E+02 1.110E+02 
4.000E-03 6.813E-01 9.411E-02 8.179E+01 0.000E+00 0.000E+00 8.256E+01 8.188E+01 
5.000E-03 5.371E-01 1.118E-01 4.207E+01 0.000E+00 0.000E+00 4.272E+01 4.218E+01 
6.000E-03 4.333E-01 1.249E-01 2.427E+01 0.000E+00 0.000E+00 2.483E+01 2.440E+01 
8.000E-03 3.013E-01 1.426E-01 1.008E+01 0.000E+00 0.000E+00 1.052E+01 1.022E+01 
1.000E-02 2.252E-01 1.535E-01 5.053E+00 0.000E+00 0.000E+00 5.432E+00 5.206E+00 
1.500E-02 1.309E-01 1.684E-01 1.414E+00 0.000E+00 0.000E+00 1.713E+00 1.583E+00 
2.000E-02 8.697E-02 1.760E-01 5.658E-01 0.000E+00 0.000E+00 8.288E-01 7.418E-01 
3.000E-02 4.602E-02 1.815E-01 1.532E-01 0.000E+00 0.000E+00 3.807E-01 3.347E-01 
4.000E-02 2.819E-02 1.813E-01 6.010E-02 0.000E+00 0.000E+00 2.696E-01 2.414E-01 
5.000E-02 1.900E-02 1.789E-01 2.898E-02 0.000E+00 0.000E+00 2.269E-01 2.079E-01 
6.000E-02 1.366E-02 1.756E-01 1.594E-02 0.000E+00 0.000E+00 2.052E-01 1.916E-01 
8.000E-02 8.012E-03 1.683E-01 6.198E-03 0.000E+00 0.000E+00 1.826E-01 1.745E-01 
1.000E-01 5.249E-03 1.613E-01 2.980E-03 0.000E+00 0.000E+00 1.695E-01 1.643E-01 
1.500E-01 2.396E-03 1.461E-01 7.941E-04 0.000E+00 0.000E+00 1.493E-01 1.469E-01 
2.000E-01 1.362E-03 1.342E-01 3.151E-04 0.000E+00 0.000E+00 1.359E-01 1.345E-01 
3.000E-01 6.102E-04 1.170E-01 8.949E-05 0.000E+00 0.000E+00 1.177E-01 1.171E-01 
4.000E-01 3.442E-04 1.049E-01 3.842E-05 0.000E+00 0.000E+00 1.053E-01 1.049E-01 
5.000E-01 2.206E-04 9.583E-02 2.075E-05 0.000E+00 0.000E+00 9.607E-02 9.585E-02 
6.000E-01 1.533E-04 8.866E-02 1.293E-05 0.000E+00 0.000E+00 8.882E-02 8.867E-02 
8.000E-01 8.632E-05 7.791E-02 6.533E-06 0.000E+00 0.000E+00 7.800E-02 7.792E-02 
1.000E+00 5.526E-05 7.007E-02 4.062E-06 0.000E+00 0.000E+00 7.013E-02 7.008E-02 
1.022E+00 5.291E-05 6.933E-02 3.794E-06 0.000E+00 0.000E+00 6.939E-02 6.934E-02 
1.250E+00 3.538E-05 6.266E-02 2.575E-06 1.749E-05 0.000E+00 6.271E-02 6.268E-02 
1.500E+00 2.457E-05 5.694E-02 1.867E-06 9.663E-05 0.000E+00 5.707E-02 5.704E-02 
2.000E+00 1.382E-05 4.860E-02 1.172E-06 3.845E-04 0.000E+00 4.900E-02 4.899E-02 
2.044E+00 1.323E-05 4.799E-02 1.133E-06 4.144E-04 0.000E+00 4.842E-02 4.841E-02 
3.000E+00 6.143E-06 3.823E-02 6.527E-07 1.099E-03 1.338E-05 3.935E-02 3.934E-02 
4.000E+00 3.456E-06 3.189E-02 4.472E-07 1.782E-03 5.461E-05 3.373E-02 3.373E-02 
5.000E+00 2.211E-06 2.754E-02 3.386E-07 2.391E-03 1.088E-04 3.004E-02 3.004E-02 
6.000E+00 1.536E-06 2.434E-02 2.720E-07 2.938E-03 1.671E-04 2.745E-02 2.745E-02 
