Density

1.18

Photon    Coherent Incoher. Photoel. Nuclear  Electron Tot. w/  Tot. wo/ 
Energy    Scatter. Scatter. Absorb.  Pr. Prd. Pr. Prd. Coherent Coherent 

1.000E-03 1.432E+00 1.438E-02 3.120E+03 0.000E+00 0.000E+00 3.121E+03 3.120E+03 
1.035E-03 1.422E+00 1.526E-02 2.841E+03 0.000E+00 0.000E+00 2.842E+03 2.841E+03 
1.072E-03 1.412E+00 1.620E-02 2.587E+03 0.000E+00 0.000E+00 2.588E+03 2.587E+03 
1.072E-03 1.412E+00 1.620E-02 2.592E+03 0.000E+00 0.000E+00 2.594E+03 2.593E+03 
1.183E-03 1.384E+00 1.913E-02 1.989E+03 0.000E+00 0.000E+00 1.991E+03 1.989E+03 
1.305E-03 1.353E+00 2.254E-02 1.524E+03 0.000E+00 0.000E+00 1.526E+03 1.524E+03 
1.305E-03 1.353E+00 2.254E-02 1.529E+03 0.000E+00 0.000E+00 1.531E+03 1.529E+03 
1.500E-03 1.302E+00 2.823E-02 1.045E+03 0.000E+00 0.000E+00 1.047E+03 1.045E+03 
2.000E-03 1.163E+00 4.315E-02 4.664E+02 0.000E+00 0.000E+00 4.676E+02 4.664E+02 
2.145E-03 1.123E+00 4.745E-02 3.817E+02 0.000E+00 0.000E+00 3.829E+02 3.818E+02 
2.145E-03 1.123E+00 4.745E-02 4.574E+02 0.000E+00 0.000E+00 4.585E+02 4.574E+02 
2.303E-03 1.081E+00 5.203E-02 3.761E+02 0.000E+00 0.000E+00 3.772E+02 3.761E+02 
2.472E-03 1.037E+00 5.683E-02 3.091E+02 0.000E+00 0.000E+00 3.101E+02 3.091E+02 
2.472E-03 1.037E+00 5.683E-02 3.128E+02 0.000E+00 0.000E+00 3.139E+02 3.128E+02 
2.641E-03 9.942E-01 6.151E-02 2.602E+02 0.000E+00 0.000E+00 2.612E+02 2.602E+02 
2.822E-03 9.507E-01 6.633E-02 2.162E+02 0.000E+00 0.000E+00 2.172E+02 2.162E+02 
2.822E-03 9.507E-01 6.633E-02 2.191E+02 0.000E+00 0.000E+00 2.201E+02 2.192E+02 
3.000E-03 9.099E-01 7.088E-02 1.847E+02 0.000E+00 0.000E+00 1.857E+02 1.847E+02 
3.607E-03 7.848E-01 8.495E-02 1.090E+02 0.000E+00 0.000E+00 1.099E+02 1.091E+02 
3.607E-03 7.848E-01 8.495E-02 1.101E+02 0.000E+00 0.000E+00 1.110E+02 1.102E+02 
4.000E-03 7.148E-01 9.284E-02 8.162E+01 0.000E+00 0.000E+00 8.243E+01 8.172E+01 
4.038E-03 7.084E-01 9.356E-02 7.941E+01 0.000E+00 0.000E+00 8.021E+01 7.950E+01 
4.038E-03 7.084E-01 9.356E-02 1.464E+02 0.000E+00 0.000E+00 1.472E+02 1.464E+02 
5.000E-03 5.732E-01 1.092E-01 8.227E+01 0.000E+00 0.000E+00 8.295E+01 8.238E+01 
6.000E-03 4.713E-01 1.213E-01 4.948E+01 0.000E+00 0.000E+00 5.008E+01 4.961E+01 
7.112E-03 3.895E-01 1.314E-01 3.064E+01 0.000E+00 0.000E+00 3.116E+01 3.077E+01 
7.112E-03 3.895E-01 1.314E-01 3.099E+01 0.000E+00 0.000E+00 3.151E+01 3.112E+01 
8.000E-03 3.403E-01 1.377E-01 2.219E+01 0.000E+00 0.000E+00 2.267E+01 2.233E+01 
1.000E-02 2.618E-01 1.482E-01 1.166E+01 0.000E+00 0.000E+00 1.207E+01 1.181E+01 
1.500E-02 1.570E-01 1.636E-01 3.532E+00 0.000E+00 0.000E+00 3.852E+00 3.695E+00 
2.000E-02 1.044E-01 1.716E-01 1.488E+00 0.000E+00 0.000E+00 1.764E+00 1.659E+00 
3.000E-02 5.536E-02 1.774E-01 4.303E-01 0.000E+00 0.000E+00 6.631E-01 6.077E-01 
4.000E-02 3.424E-02 1.774E-01 1.762E-01 0.000E+00 0.000E+00 3.878E-01 3.536E-01 
5.000E-02 2.329E-02 1.751E-01 8.758E-02 0.000E+00 0.000E+00 2.860E-01 2.627E-01 
6.000E-02 1.685E-02 1.720E-01 4.931E-02 0.000E+00 0.000E+00 2.381E-01 2.213E-01 
8.000E-02 9.968E-03 1.650E-01 1.982E-02 0.000E+00 0.000E+00 1.948E-01 1.848E-01 
1.000E-01 6.563E-03 1.582E-01 9.758E-03 0.000E+00 0.000E+00 1.745E-01 1.679E-01 
1.500E-01 3.020E-03 1.434E-01 2.700E-03 0.000E+00 0.000E+00 1.492E-01 1.461E-01 
2.000E-01 1.725E-03 1.318E-01 1.096E-03 0.000E+00 0.000E+00 1.346E-01 1.329E-01 
3.000E-01 7.769E-04 1.149E-01 3.192E-04 0.000E+00 0.000E+00 1.160E-01 1.152E-01 
4.000E-01 4.393E-04 1.030E-01 1.390E-04 0.000E+00 0.000E+00 1.036E-01 1.032E-01 
5.000E-01 2.819E-04 9.415E-02 7.568E-05 0.000E+00 0.000E+00 9.451E-02 9.423E-02 
6.000E-01 1.960E-04 8.711E-02 4.740E-05 0.000E+00 0.000E+00 8.735E-02 8.716E-02 
8.000E-01 1.104E-04 7.655E-02 2.405E-05 0.000E+00 0.000E+00 7.668E-02 7.657E-02 
1.000E+00 7.071E-05 6.884E-02 1.495E-05 0.000E+00 0.000E+00 6.893E-02 6.886E-02 
1.022E+00 6.771E-05 6.812E-02 1.411E-05 0.000E+00 0.000E+00 6.821E-02 6.814E-02 
1.250E+00 4.528E-05 6.156E-02 9.561E-06 1.938E-05 0.000E+00 6.164E-02 6.159E-02 
1.500E+00 3.145E-05 5.596E-02 6.913E-06 1.060E-04 0.000E+00 5.610E-02 5.607E-02 
2.000E+00 1.769E-05 4.775E-02 4.297E-06 4.200E-04 0.000E+00 4.819E-02 4.818E-02 
2.044E+00 1.694E-05 4.716E-02 4.153E-06 4.527E-04 0.000E+00 4.763E-02 4.761E-02 
3.000E+00 7.865E-06 3.757E-02 2.361E-06 1.196E-03 1.314E-05 3.879E-02 3.878E-02 
4.000E+00 4.425E-06 3.134E-02 1.602E-06 1.936E-03 5.366E-05 3.333E-02 3.333E-02 
5.000E+00 2.831E-06 2.706E-02 1.206E-06 2.595E-03 1.069E-04 2.977E-02 2.977E-02 
6.000E+00 1.966E-06 2.392E-02 9.645E-07 3.186E-03 1.642E-04 2.727E-02 2.727E-02 
