Density

1.03

Photon    Coherent Incoher. Photoel. Nuclear  Electron Tot. w/  Tot. wo/ 
Energy    Scatter. Scatter. Absorb.  Pr. Prd. Pr. Prd. Coherent Coherent 

1.000E-03 1.308E+00 1.355E-02 3.596E+03 0.000E+00 0.000E+00 3.597E+03 3.596E+03 
1.035E-03 1.300E+00 1.442E-02 3.276E+03 0.000E+00 0.000E+00 3.277E+03 3.276E+03 
1.072E-03 1.292E+00 1.533E-02 2.985E+03 0.000E+00 0.000E+00 2.986E+03 2.985E+03 
1.072E-03 1.292E+00 1.533E-02 2.990E+03 0.000E+00 0.000E+00 2.992E+03 2.990E+03 
1.500E-03 1.201E+00 2.729E-02 1.205E+03 0.000E+00 0.000E+00 1.206E+03 1.205E+03 
2.000E-03 1.079E+00 4.247E-02 5.377E+02 0.000E+00 0.000E+00 5.388E+02 5.377E+02 
2.145E-03 1.043E+00 4.689E-02 4.400E+02 0.000E+00 0.000E+00 4.411E+02 4.401E+02 
2.145E-03 1.043E+00 4.689E-02 4.445E+02 0.000E+00 0.000E+00 4.455E+02 4.445E+02 
2.303E-03 1.004E+00 5.161E-02 3.629E+02 0.000E+00 0.000E+00 3.639E+02 3.629E+02 
2.472E-03 9.634E-01 5.658E-02 2.960E+02 0.000E+00 0.000E+00 2.970E+02 2.960E+02 
2.472E-03 9.634E-01 5.658E-02 3.006E+02 0.000E+00 0.000E+00 3.016E+02 3.007E+02 
2.641E-03 9.235E-01 6.144E-02 2.484E+02 0.000E+00 0.000E+00 2.493E+02 2.484E+02 
2.822E-03 8.821E-01 6.647E-02 2.050E+02 0.000E+00 0.000E+00 2.059E+02 2.050E+02 
2.822E-03 8.821E-01 6.647E-02 2.072E+02 0.000E+00 0.000E+00 2.082E+02 2.073E+02 
3.000E-03 8.431E-01 7.122E-02 1.736E+02 0.000E+00 0.000E+00 1.745E+02 1.737E+02 
3.607E-03 7.216E-01 8.600E-02 1.010E+02 0.000E+00 0.000E+00 1.018E+02 1.011E+02 
3.607E-03 7.216E-01 8.600E-02 1.031E+02 0.000E+00 0.000E+00 1.039E+02 1.032E+02 
4.000E-03 6.536E-01 9.436E-02 7.594E+01 0.000E+00 0.000E+00 7.669E+01 7.603E+01 
5.000E-03 5.147E-01 1.118E-01 3.898E+01 0.000E+00 0.000E+00 3.960E+01 3.909E+01 
6.000E-03 4.153E-01 1.248E-01 2.245E+01 0.000E+00 0.000E+00 2.299E+01 2.257E+01 
8.000E-03 2.894E-01 1.421E-01 9.297E+00 0.000E+00 0.000E+00 9.729E+00 9.439E+00 
1.000E-02 2.168E-01 1.529E-01 4.652E+00 0.000E+00 0.000E+00 5.022E+00 4.805E+00 
1.500E-02 1.264E-01 1.679E-01 1.298E+00 0.000E+00 0.000E+00 1.592E+00 1.466E+00 
2.000E-02 8.393E-02 1.755E-01 5.181E-01 0.000E+00 0.000E+00 7.775E-01 6.936E-01 
3.000E-02 4.434E-02 1.810E-01 1.399E-01 0.000E+00 0.000E+00 3.652E-01 3.208E-01 
4.000E-02 2.714E-02 1.807E-01 5.478E-02 0.000E+00 0.000E+00 2.626E-01 2.355E-01 
5.000E-02 1.828E-02 1.782E-01 2.638E-02 0.000E+00 0.000E+00 2.229E-01 2.046E-01 
6.000E-02 1.314E-02 1.749E-01 1.450E-02 0.000E+00 0.000E+00 2.026E-01 1.894E-01 
8.000E-02 7.701E-03 1.677E-01 5.629E-03 0.000E+00 0.000E+00 1.810E-01 1.733E-01 
1.000E-01 5.043E-03 1.606E-01 2.704E-03 0.000E+00 0.000E+00 1.684E-01 1.633E-01 
1.500E-01 2.301E-03 1.455E-01 7.194E-04 0.000E+00 0.000E+00 1.485E-01 1.462E-01 
2.000E-01 1.307E-03 1.336E-01 2.852E-04 0.000E+00 0.000E+00 1.352E-01 1.339E-01 
3.000E-01 5.855E-04 1.164E-01 8.090E-05 0.000E+00 0.000E+00 1.171E-01 1.165E-01 
4.000E-01 3.303E-04 1.044E-01 3.471E-05 0.000E+00 0.000E+00 1.048E-01 1.045E-01 
5.000E-01 2.116E-04 9.540E-02 1.874E-05 0.000E+00 0.000E+00 9.563E-02 9.542E-02 
6.000E-01 1.471E-04 8.826E-02 1.168E-05 0.000E+00 0.000E+00 8.842E-02 8.827E-02 
8.000E-01 8.280E-05 7.756E-02 5.899E-06 0.000E+00 0.000E+00 7.765E-02 7.757E-02 
1.000E+00 5.300E-05 6.976E-02 3.667E-06 0.000E+00 0.000E+00 6.981E-02 6.976E-02 
1.022E+00 5.075E-05 6.902E-02 3.422E-06 0.000E+00 0.000E+00 6.908E-02 6.903E-02 
1.250E+00 3.394E-05 6.237E-02 2.323E-06 1.706E-05 0.000E+00 6.243E-02 6.239E-02 
1.500E+00 2.356E-05 5.669E-02 1.684E-06 9.433E-05 0.000E+00 5.681E-02 5.679E-02 
2.000E+00 1.326E-05 4.839E-02 1.058E-06 3.754E-04 0.000E+00 4.878E-02 4.876E-02 
2.044E+00 1.269E-05 4.778E-02 1.023E-06 4.046E-04 0.000E+00 4.819E-02 4.818E-02 
3.000E+00 5.892E-06 3.806E-02 5.896E-07 1.073E-03 1.332E-05 3.915E-02 3.915E-02 
4.000E+00 3.315E-06 3.175E-02 4.041E-07 1.741E-03 5.437E-05 3.355E-02 3.354E-02 
5.000E+00 2.121E-06 2.742E-02 3.061E-07 2.336E-03 1.083E-04 2.986E-02 2.986E-02 
6.000E+00 1.473E-06 2.423E-02 2.459E-07 2.870E-03 1.664E-04 2.727E-02 2.727E-02 
