Density

1.05

Photon    Coherent Incoher. Photoel. Nuclear  Electron Tot. w/  Tot. wo/ 
Energy    Scatter. Scatter. Absorb.  Pr. Prd. Pr. Prd. Coherent Coherent 

1.000E-03 1.326E+00 1.352E-02 3.730E+03 0.000E+00 0.000E+00 3.732E+03 3.730E+03 
1.035E-03 1.318E+00 1.439E-02 3.400E+03 0.000E+00 0.000E+00 3.401E+03 3.400E+03 
1.072E-03 1.311E+00 1.530E-02 3.098E+03 0.000E+00 0.000E+00 3.099E+03 3.098E+03 
1.072E-03 1.311E+00 1.530E-02 3.104E+03 0.000E+00 0.000E+00 3.105E+03 3.104E+03 
1.500E-03 1.220E+00 2.727E-02 1.254E+03 0.000E+00 0.000E+00 1.255E+03 1.254E+03 
2.000E-03 1.099E+00 4.249E-02 5.603E+02 0.000E+00 0.000E+00 5.615E+02 5.604E+02 
2.145E-03 1.063E+00 4.693E-02 4.587E+02 0.000E+00 0.000E+00 4.598E+02 4.588E+02 
2.145E-03 1.063E+00 4.693E-02 4.609E+02 0.000E+00 0.000E+00 4.621E+02 4.610E+02 
2.303E-03 1.024E+00 5.167E-02 3.764E+02 0.000E+00 0.000E+00 3.775E+02 3.764E+02 
2.472E-03 9.832E-01 5.667E-02 3.070E+02 0.000E+00 0.000E+00 3.080E+02 3.071E+02 
2.472E-03 9.832E-01 5.667E-02 3.107E+02 0.000E+00 0.000E+00 3.118E+02 3.108E+02 
2.641E-03 9.431E-01 6.155E-02 2.567E+02 0.000E+00 0.000E+00 2.577E+02 2.567E+02 
2.822E-03 9.015E-01 6.661E-02 2.118E+02 0.000E+00 0.000E+00 2.128E+02 2.119E+02 
2.822E-03 9.015E-01 6.661E-02 2.133E+02 0.000E+00 0.000E+00 2.142E+02 2.133E+02 
3.000E-03 8.620E-01 7.139E-02 1.786E+02 0.000E+00 0.000E+00 1.796E+02 1.787E+02 
3.607E-03 7.387E-01 8.627E-02 1.039E+02 0.000E+00 0.000E+00 1.047E+02 1.040E+02 
3.607E-03 7.387E-01 8.627E-02 1.060E+02 0.000E+00 0.000E+00 1.068E+02 1.061E+02 
4.000E-03 6.695E-01 9.470E-02 7.805E+01 0.000E+00 0.000E+00 7.882E+01 7.815E+01 
5.000E-03 5.273E-01 1.123E-01 4.004E+01 0.000E+00 0.000E+00 4.068E+01 4.016E+01 
6.000E-03 4.251E-01 1.255E-01 2.305E+01 0.000E+00 0.000E+00 2.360E+01 2.318E+01 
8.000E-03 2.955E-01 1.431E-01 9.540E+00 0.000E+00 0.000E+00 9.979E+00 9.683E+00 
1.000E-02 2.208E-01 1.539E-01 4.771E+00 0.000E+00 0.000E+00 5.146E+00 4.925E+00 
1.500E-02 1.284E-01 1.689E-01 1.329E+00 0.000E+00 0.000E+00 1.627E+00 1.498E+00 
2.000E-02 8.529E-02 1.764E-01 5.304E-01 0.000E+00 0.000E+00 7.921E-01 7.068E-01 
3.000E-02 4.510E-02 1.819E-01 1.430E-01 0.000E+00 0.000E+00 3.700E-01 3.249E-01 
4.000E-02 2.761E-02 1.816E-01 5.597E-02 0.000E+00 0.000E+00 2.652E-01 2.376E-01 
5.000E-02 1.860E-02 1.792E-01 2.694E-02 0.000E+00 0.000E+00 2.247E-01 2.061E-01 
6.000E-02 1.337E-02 1.759E-01 1.479E-02 0.000E+00 0.000E+00 2.040E-01 1.907E-01 
8.000E-02 7.840E-03 1.686E-01 5.740E-03 0.000E+00 0.000E+00 1.821E-01 1.743E-01 
1.000E-01 5.135E-03 1.615E-01 2.756E-03 0.000E+00 0.000E+00 1.694E-01 1.642E-01 
1.500E-01 2.343E-03 1.463E-01 7.325E-04 0.000E+00 0.000E+00 1.494E-01 1.470E-01 
2.000E-01 1.331E-03 1.344E-01 2.903E-04 0.000E+00 0.000E+00 1.360E-01 1.347E-01 
3.000E-01 5.964E-04 1.171E-01 8.228E-05 0.000E+00 0.000E+00 1.178E-01 1.172E-01 
4.000E-01 3.364E-04 1.050E-01 3.529E-05 0.000E+00 0.000E+00 1.054E-01 1.050E-01 
5.000E-01 2.156E-04 9.593E-02 1.905E-05 0.000E+00 0.000E+00 9.616E-02 9.595E-02 
6.000E-01 1.498E-04 8.875E-02 1.187E-05 0.000E+00 0.000E+00 8.891E-02 8.876E-02 
8.000E-01 8.434E-05 7.799E-02 5.995E-06 0.000E+00 0.000E+00 7.808E-02 7.799E-02 
1.000E+00 5.399E-05 7.014E-02 3.727E-06 0.000E+00 0.000E+00 7.020E-02 7.015E-02 
1.022E+00 5.170E-05 6.940E-02 3.477E-06 0.000E+00 0.000E+00 6.946E-02 6.941E-02 
1.250E+00 3.457E-05 6.272E-02 2.360E-06 1.726E-05 0.000E+00 6.277E-02 6.274E-02 
1.500E+00 2.400E-05 5.700E-02 1.712E-06 9.542E-05 0.000E+00 5.712E-02 5.710E-02 
2.000E+00 1.350E-05 4.865E-02 1.075E-06 3.798E-04 0.000E+00 4.905E-02 4.903E-02 
2.044E+00 1.293E-05 4.804E-02 1.040E-06 4.093E-04 0.000E+00 4.846E-02 4.845E-02 
3.000E+00 6.002E-06 3.827E-02 5.996E-07 1.086E-03 1.339E-05 3.937E-02 3.937E-02 
4.000E+00 3.377E-06 3.192E-02 4.110E-07 1.761E-03 5.467E-05 3.374E-02 3.374E-02 
5.000E+00 2.161E-06 2.757E-02 3.114E-07 2.362E-03 1.089E-04 3.004E-02 3.004E-02 
6.000E+00 1.500E-06 2.437E-02 2.502E-07 2.903E-03 1.673E-04 2.744E-02 2.744E-02 
