Density

2.1

Photon    Coherent Incoher. Photoel. Nuclear  Electron Tot. w/  Tot. wo/ 
Energy    Scatter. Scatter. Absorb.  Pr. Prd. Pr. Prd. Coherent Coherent 

1.000E-03 1.49E+00 7.92E-03 4.82E+03 0.00E+00 0.00E+00 4.82E+03 4.82E+03 
1.500E-03 1.39E+00 1.63E-02 1.67E+03 0.00E+00 0.00E+00 1.67E+03 1.67E+03 
2.000E-03 1.27E+00 2.61E-02 7.59E+02 0.00E+00 0.00E+00 7.60E+02 7.59E+02 
3.000E-03 1.02E+00 4.65E-02 2.40E+02 0.00E+00 0.00E+00 2.41E+02 2.40E+02 
4.000E-03 8.09E-01 6.51E-02 1.04E+02 0.00E+00 0.00E+00 1.04E+02 1.04E+02 
5.000E-03 6.46E-01 8.06E-02 5.33E+01 0.00E+00 0.00E+00 5.41E+01 5.34E+01 
6.000E-03 5.24E-01 9.30E-02 3.08E+01 0.00E+00 0.00E+00 3.14E+01 3.09E+01 
8.000E-03 3.65E-01 1.11E-01 1.28E+01 0.00E+00 0.00E+00 1.33E+01 1.29E+01 
1.000E-02 2.71E-01 1.22E-01 6.41E+00 0.00E+00 0.00E+00 6.80E+00 6.53E+00 
1.500E-02 1.55E-01 1.39E-01 1.79E+00 0.00E+00 0.00E+00 2.09E+00 1.93E+00 
2.000E-02 1.03E-01 1.47E-01 7.17E-01 0.00E+00 0.00E+00 9.67E-01 8.64E-01 
3.000E-02 5.43E-02 1.54E-01 1.94E-01 0.00E+00 0.00E+00 4.02E-01 3.48E-01 
4.000E-02 3.34E-02 1.55E-01 7.59E-02 0.00E+00 0.00E+00 2.65E-01 2.31E-01 
5.000E-02 2.25E-02 1.54E-01 3.66E-02 0.00E+00 0.00E+00 2.13E-01 1.91E-01 
6.000E-02 1.62E-02 1.52E-01 2.01E-02 0.00E+00 0.00E+00 1.88E-01 1.72E-01 
8.000E-02 9.49E-03 1.46E-01 7.79E-03 0.00E+00 0.00E+00 1.63E-01 1.54E-01 
1.000E-01 6.22E-03 1.40E-01 3.74E-03 0.00E+00 0.00E+00 1.50E-01 1.44E-01 
1.500E-01 2.84E-03 1.27E-01 9.93E-04 0.00E+00 0.00E+00 1.31E-01 1.28E-01 
2.000E-01 1.62E-03 1.17E-01 3.93E-04 0.00E+00 0.00E+00 1.19E-01 1.17E-01 
3.000E-01 7.25E-04 1.02E-01 1.11E-04 0.00E+00 0.00E+00 1.03E-01 1.02E-01 
4.000E-01 4.09E-04 9.14E-02 4.78E-05 0.00E+00 0.00E+00 9.19E-02 9.15E-02 
5.000E-01 2.62E-04 8.35E-02 2.58E-05 0.00E+00 0.00E+00 8.38E-02 8.35E-02 
6.000E-01 1.82E-04 7.73E-02 1.61E-05 0.00E+00 0.00E+00 7.75E-02 7.73E-02 
8.000E-01 1.03E-04 6.79E-02 8.11E-06 0.00E+00 0.00E+00 6.80E-02 6.79E-02 
1.000E+00 6.57E-05 6.11E-02 5.04E-06 0.00E+00 0.00E+00 6.11E-02 6.11E-02 
1.022E+00 6.29E-05 6.04E-02 4.71E-06 0.00E+00 0.00E+00 6.05E-02 6.04E-02 
1.250E+00 4.20E-05 5.46E-02 3.20E-06 1.91E-05 0.00E+00 5.47E-02 5.46E-02 
1.500E+00 2.92E-05 4.97E-02 2.32E-06 1.06E-04 0.00E+00 4.98E-02 4.98E-02 
2.000E+00 1.64E-05 4.24E-02 1.46E-06 4.22E-04 0.00E+00 4.28E-02 4.28E-02 
2.044E+00 1.57E-05 4.18E-02 1.41E-06 4.55E-04 0.00E+00 4.23E-02 4.23E-02 
3.000E+00 7.30E-06 3.33E-02 8.13E-07 1.21E-03 1.17E-05 3.46E-02 3.46E-02 
4.000E+00 4.11E-06 2.78E-02 5.57E-07 1.96E-03 4.76E-05 2.98E-02 2.98E-02 
5.000E+00 2.63E-06 2.40E-02 4.22E-07 2.63E-03 9.49E-05 2.67E-02 2.67E-02 
6.000E+00 1.83E-06 2.12E-02 3.39E-07 3.23E-03 1.46E-04 2.46E-02 2.46E-02 
6.000E+00 1.83E-06 2.12E-02 3.39E-07 3.23E-03 1.46E-04 2.46E-02 2.46E-02 
6.000E+00 1.83E-06 2.12E-02 3.39E-07 3.23E-03 1.46E-04 2.46E-02 2.46E-02 
6.000E+00 1.83E-06 2.12E-02 3.39E-07 3.23E-03 1.46E-04 2.46E-02 2.46E-02 
6.000E+00 1.83E-06 2.12E-02 3.39E-07 3.23E-03 1.46E-04 2.46E-02 2.46E-02 
6.000E+00 1.83E-06 2.12E-02 3.39E-07 3.23E-03 1.46E-04 2.46E-02 2.46E-02 
6.000E+00 1.83E-06 2.12E-02 3.39E-07 3.23E-03 1.46E-04 2.46E-02 2.46E-02 
6.000E+00 1.83E-06 2.12E-02 3.39E-07 3.23E-03 1.46E-04 2.46E-02 2.46E-02 
6.000E+00 1.83E-06 2.12E-02 3.39E-07 3.23E-03 1.46E-04 2.46E-02 2.46E-02 
6.000E+00 1.83E-06 2.12E-02 3.39E-07 3.23E-03 1.46E-04 2.46E-02 2.46E-02 
6.000E+00 1.83E-06 2.12E-02 3.39E-07 3.23E-03 1.46E-04 2.46E-02 2.46E-02 
6.000E+00 1.83E-06 2.12E-02 3.39E-07 3.23E-03 1.46E-04 2.46E-02 2.46E-02 
6.000E+00 1.83E-06 2.12E-02 3.39E-07 3.23E-03 1.46E-04 2.46E-02 2.46E-02 
6.000E+00 1.83E-06 2.12E-02 3.39E-07 3.23E-03 1.46E-04 2.46E-02 2.46E-02 
6.000E+00 1.83E-06 2.12E-02 3.39E-07 3.23E-03 1.46E-04 2.46E-02 2.46E-02 
6.000E+00 1.83E-06 2.12E-02 3.39E-07 3.23E-03 1.46E-04 2.46E-02 2.46E-02 
6.000E+00 1.83E-06 2.12E-02 3.39E-07 3.23E-03 1.46E-04 2.46E-02 2.46E-02 
6.000E+00 1.83E-06 2.12E-02 3.39E-07 3.23E-03 1.46E-04 2.46E-02 2.46E-02 
6.000E+00 1.83E-06 2.12E-02 3.39E-07 3.23E-03 1.46E-04 2.46E-02 2.46E-02 
6.000E+00 1.83E-06 2.12E-02 3.39E-07 3.23E-03 1.46E-04 2.46E-02 2.46E-02 
6.000E+00 1.83E-06 2.12E-02 3.39E-07 3.23E-03 1.46E-04 2.46E-02 2.46E-02 
6.000E+00 1.83E-06 2.12E-02 3.39E-07 3.23E-03 1.46E-04 2.46E-02 2.46E-02 
6.000E+00 1.83E-06 2.12E-02 3.39E-07 3.23E-03 1.46E-04 2.46E-02 2.46E-02 
6.000E+00 1.83E-06 2.12E-02 3.39E-07 3.23E-03 1.46E-04 2.46E-02 2.46E-02 
6.000E+00 1.83E-06 2.12E-02 3.39E-07 3.23E-03 1.46E-04 2.46E-02 2.46E-02 
6.000E+00 1.83E-06 2.12E-02 3.39E-07 3.23E-03 1.46E-04 2.46E-02 2.46E-02 
6.000E+00 1.83E-06 2.12E-02 3.39E-07 3.23E-03 1.46E-04 2.46E-02 2.46E-02 
6.000E+00 1.83E-06 2.12E-02 3.39E-07 3.23E-03 1.46E-04 2.46E-02 2.46E-02 
6.000E+00 1.83E-06 2.12E-02 3.39E-07 3.23E-03 1.46E-04 2.46E-02 2.46E-02 
6.000E+00 1.83E-06 2.12E-02 3.39E-07 3.23E-03 1.46E-04 2.46E-02 2.46E-02 
6.000E+00 1.83E-06 2.12E-02 3.39E-07 3.23E-03 1.46E-04 2.46E-02 2.46E-02 
6.000E+00 1.83E-06 2.12E-02 3.39E-07 3.23E-03 1.46E-04 2.46E-02 2.46E-02 
6.000E+00 1.83E-06 2.12E-02 3.39E-07 3.23E-03 1.46E-04 2.46E-02 2.46E-02 
6.000E+00 1.83E-06 2.12E-02 3.39E-07 3.23E-03 1.46E-04 2.46E-02 2.46E-02 
6.000E+00 1.83E-06 2.12E-02 3.39E-07 3.23E-03 1.46E-04 2.46E-02 2.46E-02 
6.000E+00 1.83E-06 2.12E-02 3.39E-07 3.23E-03 1.46E-04 2.46E-02 2.46E-02 
6.000E+00 1.83E-06 2.12E-02 3.39E-07 3.23E-03 1.46E-04 2.46E-02 2.46E-02 
6.000E+00 1.83E-06 2.12E-02 3.39E-07 3.23E-03 1.46E-04 2.46E-02 2.46E-02 
6.000E+00 1.83E-06 2.12E-02 3.39E-07 3.23E-03 1.46E-04 2.46E-02 2.46E-02 
6.000E+00 1.83E-06 2.12E-02 3.39E-07 3.23E-03 1.46E-04 2.46E-02 2.46E-02 
6.000E+00 1.83E-06 2.12E-02 3.39E-07 3.23E-03 1.46E-04 2.46E-02 2.46E-02 
6.000E+00 1.83E-06 2.12E-02 3.39E-07 3.23E-03 1.46E-04 2.46E-02 2.46E-02 
6.000E+00 1.83E-06 2.12E-02 3.39E-07 3.23E-03 1.46E-04 2.46E-02 2.46E-02 
6.000E+00 1.83E-06 2.12E-02 3.39E-07 3.23E-03 1.46E-04 2.46E-02 2.46E-02 
6.000E+00 1.83E-06 2.12E-02 3.39E-07 3.23E-03 1.46E-04 2.46E-02 2.46E-02 
6.000E+00 1.83E-06 2.12E-02 3.39E-07 3.23E-03 1.46E-04 2.46E-02 2.46E-02 
6.000E+00 1.83E-06 2.12E-02 3.39E-07 3.23E-03 1.46E-04 2.46E-02 2.46E-02 
