Density

1.04

Photon    Coherent Incoher. Photoel. Nuclear  Electron Tot. w/  Tot. wo/ 
Energy    Scatter. Scatter. Absorb.  Pr. Prd. Pr. Prd. Coherent Coherent 

1.000E-03 1.345E+00 1.343E-02 3.822E+03 0.000E+00 0.000E+00 3.823E+03 3.822E+03 
1.035E-03 1.337E+00 1.428E-02 3.484E+03 0.000E+00 0.000E+00 3.485E+03 3.484E+03 
1.072E-03 1.329E+00 1.519E-02 3.175E+03 0.000E+00 0.000E+00 3.177E+03 3.175E+03 
1.072E-03 1.329E+00 1.519E-02 3.187E+03 0.000E+00 0.000E+00 3.188E+03 3.187E+03 
1.500E-03 1.239E+00 2.709E-02 1.290E+03 0.000E+00 0.000E+00 1.291E+03 1.290E+03 
2.000E-03 1.118E+00 4.226E-02 5.771E+02 0.000E+00 0.000E+00 5.783E+02 5.772E+02 
2.145E-03 1.082E+00 4.669E-02 4.726E+02 0.000E+00 0.000E+00 4.738E+02 4.727E+02 
2.145E-03 1.082E+00 4.669E-02 4.749E+02 0.000E+00 0.000E+00 4.760E+02 4.749E+02 
2.303E-03 1.043E+00 5.142E-02 3.879E+02 0.000E+00 0.000E+00 3.889E+02 3.879E+02 
2.472E-03 1.002E+00 5.641E-02 3.164E+02 0.000E+00 0.000E+00 3.175E+02 3.165E+02 
2.472E-03 1.002E+00 5.641E-02 3.201E+02 0.000E+00 0.000E+00 3.212E+02 3.202E+02 
2.641E-03 9.611E-01 6.128E-02 2.645E+02 0.000E+00 0.000E+00 2.655E+02 2.646E+02 
2.822E-03 9.190E-01 6.633E-02 2.183E+02 0.000E+00 0.000E+00 2.193E+02 2.184E+02 
2.822E-03 9.190E-01 6.633E-02 2.212E+02 0.000E+00 0.000E+00 2.222E+02 2.213E+02 
3.000E-03 8.791E-01 7.111E-02 1.854E+02 0.000E+00 0.000E+00 1.864E+02 1.855E+02 
3.607E-03 7.543E-01 8.601E-02 1.080E+02 0.000E+00 0.000E+00 1.088E+02 1.081E+02 
3.607E-03 7.543E-01 8.601E-02 1.101E+02 0.000E+00 0.000E+00 1.109E+02 1.102E+02 
4.000E-03 6.839E-01 9.446E-02 8.110E+01 0.000E+00 0.000E+00 8.187E+01 8.119E+01 
5.000E-03 5.390E-01 1.122E-01 4.165E+01 0.000E+00 0.000E+00 4.230E+01 4.176E+01 
6.000E-03 4.345E-01 1.255E-01 2.400E+01 0.000E+00 0.000E+00 2.456E+01 2.412E+01 
8.000E-03 3.018E-01 1.432E-01 9.945E+00 0.000E+00 0.000E+00 1.039E+01 1.009E+01 
1.000E-02 2.253E-01 1.541E-01 4.978E+00 0.000E+00 0.000E+00 5.358E+00 5.132E+00 
1.500E-02 1.308E-01 1.690E-01 1.389E+00 0.000E+00 0.000E+00 1.689E+00 1.558E+00 
2.000E-02 8.690E-02 1.765E-01 5.549E-01 0.000E+00 0.000E+00 8.183E-01 7.314E-01 
3.000E-02 4.599E-02 1.820E-01 1.498E-01 0.000E+00 0.000E+00 3.779E-01 3.319E-01 
4.000E-02 2.817E-02 1.819E-01 5.868E-02 0.000E+00 0.000E+00 2.687E-01 2.405E-01 
5.000E-02 1.898E-02 1.794E-01 2.826E-02 0.000E+00 0.000E+00 2.267E-01 2.077E-01 
6.000E-02 1.364E-02 1.761E-01 1.553E-02 0.000E+00 0.000E+00 2.053E-01 1.916E-01 
8.000E-02 8.003E-03 1.688E-01 6.029E-03 0.000E+00 0.000E+00 1.829E-01 1.748E-01 
1.000E-01 5.243E-03 1.617E-01 2.896E-03 0.000E+00 0.000E+00 1.699E-01 1.646E-01 
1.500E-01 2.393E-03 1.465E-01 7.702E-04 0.000E+00 0.000E+00 1.497E-01 1.473E-01 
2.000E-01 1.360E-03 1.346E-01 3.054E-04 0.000E+00 0.000E+00 1.363E-01 1.349E-01 
3.000E-01 6.094E-04 1.173E-01 8.661E-05 0.000E+00 0.000E+00 1.180E-01 1.174E-01 
4.000E-01 3.437E-04 1.052E-01 3.716E-05 0.000E+00 0.000E+00 1.056E-01 1.052E-01 
5.000E-01 2.203E-04 9.609E-02 2.006E-05 0.000E+00 0.000E+00 9.633E-02 9.611E-02 
6.000E-01 1.531E-04 8.890E-02 1.250E-05 0.000E+00 0.000E+00 8.906E-02 8.891E-02 
8.000E-01 8.619E-05 7.812E-02 6.314E-06 0.000E+00 0.000E+00 7.822E-02 7.813E-02 
1.000E+00 5.517E-05 7.026E-02 3.925E-06 0.000E+00 0.000E+00 7.032E-02 7.027E-02 
1.022E+00 5.283E-05 6.952E-02 3.664E-06 0.000E+00 0.000E+00 6.958E-02 6.953E-02 
1.250E+00 3.533E-05 6.283E-02 2.487E-06 1.749E-05 0.000E+00 6.288E-02 6.285E-02 
1.500E+00 2.453E-05 5.710E-02 1.803E-06 9.663E-05 0.000E+00 5.722E-02 5.720E-02 
2.000E+00 1.380E-05 4.874E-02 1.133E-06 3.845E-04 0.000E+00 4.914E-02 4.912E-02 
2.044E+00 1.321E-05 4.812E-02 1.095E-06 4.144E-04 0.000E+00 4.855E-02 4.854E-02 
3.000E+00 6.134E-06 3.834E-02 6.313E-07 1.099E-03 1.341E-05 3.945E-02 3.945E-02 
4.000E+00 3.451E-06 3.198E-02 4.327E-07 1.783E-03 5.476E-05 3.382E-02 3.382E-02 
5.000E+00 2.208E-06 2.762E-02 3.278E-07 2.391E-03 1.091E-04 3.012E-02 3.012E-02 
6.000E+00 1.533E-06 2.441E-02 2.633E-07 2.939E-03 1.676E-04 2.752E-02 2.752E-02 
