Density

1.05

Photon    Coherent Incoher. Photoel. Nuclear  Electron Tot. w/  Tot. wo/ 
Energy    Scatter. Scatter. Absorb.  Pr. Prd. Pr. Prd. Coherent Coherent 

1.000E-03 1.341E+00 1.343E-02 3.786E+03 0.000E+00 0.000E+00 3.787E+03 3.786E+03 
1.035E-03 1.334E+00 1.428E-02 3.451E+03 0.000E+00 0.000E+00 3.452E+03 3.451E+03 
1.072E-03 1.326E+00 1.519E-02 3.145E+03 0.000E+00 0.000E+00 3.147E+03 3.145E+03 
1.072E-03 1.326E+00 1.519E-02 3.146E+03 0.000E+00 0.000E+00 3.147E+03 3.146E+03 
1.072E-03 1.326E+00 1.519E-02 3.157E+03 0.000E+00 0.000E+00 3.158E+03 3.157E+03 
1.072E-03 1.326E+00 1.519E-02 3.145E+03 0.000E+00 0.000E+00 3.146E+03 3.145E+03 
1.072E-03 1.326E+00 1.519E-02 3.156E+03 0.000E+00 0.000E+00 3.158E+03 3.156E+03 
1.500E-03 1.236E+00 2.709E-02 1.277E+03 0.000E+00 0.000E+00 1.279E+03 1.277E+03 
2.000E-03 1.114E+00 4.224E-02 5.715E+02 0.000E+00 0.000E+00 5.726E+02 5.715E+02 
2.145E-03 1.078E+00 4.666E-02 4.680E+02 0.000E+00 0.000E+00 4.691E+02 4.680E+02 
2.145E-03 1.078E+00 4.666E-02 4.702E+02 0.000E+00 0.000E+00 4.713E+02 4.702E+02 
2.303E-03 1.039E+00 5.138E-02 3.840E+02 0.000E+00 0.000E+00 3.851E+02 3.841E+02 
2.472E-03 9.975E-01 5.636E-02 3.133E+02 0.000E+00 0.000E+00 3.144E+02 3.134E+02 
2.472E-03 9.975E-01 5.636E-02 3.152E+02 0.000E+00 0.000E+00 3.162E+02 3.152E+02 
2.641E-03 9.571E-01 6.123E-02 2.603E+02 0.000E+00 0.000E+00 2.613E+02 2.604E+02 
2.822E-03 9.152E-01 6.627E-02 2.148E+02 0.000E+00 0.000E+00 2.158E+02 2.149E+02 
2.822E-03 9.152E-01 6.627E-02 2.177E+02 0.000E+00 0.000E+00 2.187E+02 2.178E+02 
3.000E-03 8.754E-01 7.104E-02 1.824E+02 0.000E+00 0.000E+00 1.834E+02 1.825E+02 
3.607E-03 7.510E-01 8.591E-02 1.062E+02 0.000E+00 0.000E+00 1.070E+02 1.063E+02 
3.607E-03 7.510E-01 8.591E-02 1.073E+02 0.000E+00 0.000E+00 1.081E+02 1.073E+02 
4.000E-03 6.809E-01 9.434E-02 7.895E+01 0.000E+00 0.000E+00 7.972E+01 7.904E+01 
4.557E-03 5.950E-01 1.048E-01 5.350E+01 0.000E+00 0.000E+00 5.420E+01 5.360E+01 
4.557E-03 5.950E-01 1.048E-01 5.399E+01 0.000E+00 0.000E+00 5.469E+01 5.410E+01 
4.702E-03 5.750E-01 1.073E-01 4.917E+01 0.000E+00 0.000E+00 4.985E+01 4.927E+01 
4.852E-03 5.554E-01 1.097E-01 4.476E+01 0.000E+00 0.000E+00 4.543E+01 4.487E+01 
4.852E-03 5.554E-01 1.097E-01 4.499E+01 0.000E+00 0.000E+00 4.566E+01 4.510E+01 
5.000E-03 5.369E-01 1.120E-01 4.113E+01 0.000E+00 0.000E+00 4.178E+01 4.124E+01 
5.188E-03 5.147E-01 1.148E-01 3.680E+01 0.000E+00 0.000E+00 3.743E+01 3.692E+01 
5.188E-03 5.147E-01 1.148E-01 3.692E+01 0.000E+00 0.000E+00 3.755E+01 3.703E+01 
6.000E-03 4.331E-01 1.252E-01 2.379E+01 0.000E+00 0.000E+00 2.435E+01 2.392E+01 
8.000E-03 3.012E-01 1.429E-01 9.873E+00 0.000E+00 0.000E+00 1.032E+01 1.002E+01 
1.000E-02 2.252E-01 1.537E-01 4.949E+00 0.000E+00 0.000E+00 5.328E+00 5.103E+00 
1.500E-02 1.310E-01 1.687E-01 1.386E+00 0.000E+00 0.000E+00 1.686E+00 1.555E+00 
2.000E-02 8.711E-02 1.762E-01 5.552E-01 0.000E+00 0.000E+00 8.185E-01 7.314E-01 
3.000E-02 4.613E-02 1.817E-01 1.507E-01 0.000E+00 0.000E+00 3.786E-01 3.325E-01 
3.317E-02 3.900E-02 1.820E-01 1.089E-01 0.000E+00 0.000E+00 3.300E-01 2.910E-01 
3.317E-02 3.900E-02 1.820E-01 1.382E-01 0.000E+00 0.000E+00 3.592E-01 3.202E-01 
4.000E-02 2.827E-02 1.815E-01 7.742E-02 0.000E+00 0.000E+00 2.872E-01 2.589E-01 
5.000E-02 1.906E-02 1.791E-01 3.876E-02 0.000E+00 0.000E+00 2.369E-01 2.178E-01 
6.000E-02 1.371E-02 1.758E-01 2.197E-02 0.000E+00 0.000E+00 2.115E-01 1.977E-01 
8.000E-02 8.048E-03 1.685E-01 8.963E-03 0.000E+00 0.000E+00 1.855E-01 1.775E-01 
1.000E-01 5.274E-03 1.614E-01 4.471E-03 0.000E+00 0.000E+00 1.712E-01 1.659E-01 
1.500E-01 2.410E-03 1.463E-01 1.271E-03 0.000E+00 0.000E+00 1.499E-01 1.475E-01 
2.000E-01 1.371E-03 1.343E-01 5.270E-04 0.000E+00 0.000E+00 1.362E-01 1.349E-01 
3.000E-01 6.146E-04 1.171E-01 1.583E-04 0.000E+00 0.000E+00 1.178E-01 1.172E-01 
4.000E-01 3.468E-04 1.050E-01 7.031E-05 0.000E+00 0.000E+00 1.054E-01 1.050E-01 
5.000E-01 2.223E-04 9.591E-02 3.880E-05 0.000E+00 0.000E+00 9.617E-02 9.595E-02 
6.000E-01 1.545E-04 8.873E-02 2.452E-05 0.000E+00 0.000E+00 8.891E-02 8.875E-02 
8.000E-01 8.702E-05 7.797E-02 1.255E-05 0.000E+00 0.000E+00 7.807E-02 7.799E-02 
1.000E+00 5.571E-05 7.013E-02 7.821E-06 0.000E+00 0.000E+00 7.019E-02 7.014E-02 
1.022E+00 5.335E-05 6.939E-02 7.374E-06 0.000E+00 0.000E+00 6.945E-02 6.940E-02 
1.250E+00 3.568E-05 6.271E-02 4.987E-06 1.752E-05 0.000E+00 6.276E-02 6.273E-02 
1.500E+00 2.477E-05 5.699E-02 3.592E-06 9.669E-05 0.000E+00 5.711E-02 5.709E-02 
2.000E+00 1.394E-05 4.864E-02 2.220E-06 3.843E-04 0.000E+00 4.904E-02 4.903E-02 
2.044E+00 1.334E-05 4.803E-02 2.144E-06 4.141E-04 0.000E+00 4.846E-02 4.845E-02 
3.000E+00 6.195E-06 3.826E-02 1.207E-06 1.098E-03 1.339E-05 3.938E-02 3.937E-02 
4.000E+00 3.485E-06 3.192E-02 8.131E-07 1.779E-03 5.466E-05 3.376E-02 3.375E-02 
5.000E+00 2.230E-06 2.756E-02 6.087E-07 2.387E-03 1.089E-04 3.006E-02 3.006E-02 
6.000E+00 1.549E-06 2.436E-02 4.848E-07 2.933E-03 1.673E-04 2.746E-02 2.746E-02 
