Density

1.06

Photon    Coherent Incoher. Photoel. Nuclear  Electron Tot. w/  Tot. wo/ 
Energy    Scatter. Scatter. Absorb.  Pr. Prd. Pr. Prd. Coherent Coherent 

1.000E-03 1.339E+00 1.343E-02 3.726E+03 0.000E+00 0.000E+00 3.727E+03 3.726E+03 
1.035E-03 1.331E+00 1.428E-02 3.395E+03 0.000E+00 0.000E+00 3.396E+03 3.395E+03 
1.072E-03 1.323E+00 1.519E-02 3.094E+03 0.000E+00 0.000E+00 3.095E+03 3.094E+03 
1.072E-03 1.323E+00 1.519E-02 3.100E+03 0.000E+00 0.000E+00 3.101E+03 3.100E+03 
1.500E-03 1.232E+00 2.706E-02 1.252E+03 0.000E+00 0.000E+00 1.253E+03 1.252E+03 
2.000E-03 1.110E+00 4.217E-02 5.596E+02 0.000E+00 0.000E+00 5.608E+02 5.597E+02 
2.145E-03 1.073E+00 4.657E-02 4.582E+02 0.000E+00 0.000E+00 4.593E+02 4.582E+02 
2.145E-03 1.073E+00 4.657E-02 4.671E+02 0.000E+00 0.000E+00 4.682E+02 4.671E+02 
2.303E-03 1.034E+00 5.127E-02 3.817E+02 0.000E+00 0.000E+00 3.827E+02 3.817E+02 
2.472E-03 9.926E-01 5.623E-02 3.115E+02 0.000E+00 0.000E+00 3.126E+02 3.116E+02 
2.472E-03 9.926E-01 5.623E-02 3.189E+02 0.000E+00 0.000E+00 3.200E+02 3.190E+02 
2.641E-03 9.522E-01 6.108E-02 2.638E+02 0.000E+00 0.000E+00 2.648E+02 2.638E+02 
2.822E-03 9.102E-01 6.610E-02 2.179E+02 0.000E+00 0.000E+00 2.189E+02 2.180E+02 
2.822E-03 9.102E-01 6.610E-02 2.194E+02 0.000E+00 0.000E+00 2.204E+02 2.195E+02 
3.000E-03 8.704E-01 7.085E-02 1.839E+02 0.000E+00 0.000E+00 1.849E+02 1.840E+02 
3.607E-03 7.464E-01 8.564E-02 1.072E+02 0.000E+00 0.000E+00 1.080E+02 1.073E+02 
3.607E-03 7.464E-01 8.564E-02 1.115E+02 0.000E+00 0.000E+00 1.123E+02 1.116E+02 
4.000E-03 6.767E-01 9.402E-02 8.224E+01 0.000E+00 0.000E+00 8.301E+01 8.233E+01 
5.000E-03 5.336E-01 1.116E-01 4.237E+01 0.000E+00 0.000E+00 4.302E+01 4.248E+01 
6.000E-03 4.308E-01 1.247E-01 2.448E+01 0.000E+00 0.000E+00 2.503E+01 2.460E+01 
8.000E-03 3.001E-01 1.422E-01 1.019E+01 0.000E+00 0.000E+00 1.063E+01 1.033E+01 
1.000E-02 2.246E-01 1.531E-01 5.115E+00 0.000E+00 0.000E+00 5.492E+00 5.268E+00 
1.500E-02 1.307E-01 1.681E-01 1.435E+00 0.000E+00 0.000E+00 1.734E+00 1.603E+00 
2.000E-02 8.682E-02 1.757E-01 5.754E-01 0.000E+00 0.000E+00 8.379E-01 7.511E-01 
3.000E-02 4.592E-02 1.812E-01 1.562E-01 0.000E+00 0.000E+00 3.833E-01 3.374E-01 
4.000E-02 2.814E-02 1.810E-01 6.138E-02 0.000E+00 0.000E+00 2.705E-01 2.424E-01 
5.000E-02 1.896E-02 1.786E-01 2.964E-02 0.000E+00 0.000E+00 2.272E-01 2.082E-01 
6.000E-02 1.364E-02 1.753E-01 1.632E-02 0.000E+00 0.000E+00 2.052E-01 1.916E-01 
8.000E-02 8.000E-03 1.680E-01 6.354E-03 0.000E+00 0.000E+00 1.824E-01 1.744E-01 
1.000E-01 5.241E-03 1.610E-01 3.058E-03 0.000E+00 0.000E+00 1.693E-01 1.641E-01 
1.500E-01 2.393E-03 1.459E-01 8.163E-04 0.000E+00 0.000E+00 1.491E-01 1.467E-01 
2.000E-01 1.360E-03 1.340E-01 3.243E-04 0.000E+00 0.000E+00 1.357E-01 1.343E-01 
3.000E-01 6.094E-04 1.167E-01 9.219E-05 0.000E+00 0.000E+00 1.175E-01 1.168E-01 
4.000E-01 3.438E-04 1.047E-01 3.961E-05 0.000E+00 0.000E+00 1.051E-01 1.047E-01 
5.000E-01 2.203E-04 9.565E-02 2.140E-05 0.000E+00 0.000E+00 9.590E-02 9.568E-02 
6.000E-01 1.531E-04 8.849E-02 1.334E-05 0.000E+00 0.000E+00 8.866E-02 8.851E-02 
8.000E-01 8.621E-05 7.777E-02 6.741E-06 0.000E+00 0.000E+00 7.786E-02 7.777E-02 
1.000E+00 5.519E-05 6.994E-02 4.191E-06 0.000E+00 0.000E+00 7.000E-02 6.995E-02 
1.022E+00 5.285E-05 6.921E-02 3.916E-06 0.000E+00 0.000E+00 6.926E-02 6.921E-02 
1.250E+00 3.534E-05 6.254E-02 2.657E-06 1.745E-05 0.000E+00 6.260E-02 6.256E-02 
1.500E+00 2.454E-05 5.684E-02 1.927E-06 9.642E-05 0.000E+00 5.696E-02 5.694E-02 
2.000E+00 1.380E-05 4.851E-02 1.209E-06 3.837E-04 0.000E+00 4.891E-02 4.890E-02 
2.044E+00 1.321E-05 4.790E-02 1.169E-06 4.135E-04 0.000E+00 4.833E-02 4.832E-02 
3.000E+00 6.136E-06 3.816E-02 6.729E-07 1.097E-03 1.335E-05 3.928E-02 3.927E-02 
4.000E+00 3.452E-06 3.183E-02 4.608E-07 1.778E-03 5.451E-05 3.367E-02 3.367E-02 
5.000E+00 2.209E-06 2.749E-02 3.488E-07 2.386E-03 1.086E-04 2.999E-02 2.999E-02 
6.000E+00 1.534E-06 2.430E-02 2.801E-07 2.931E-03 1.668E-04 2.740E-02 2.740E-02 
