Density

1.02

Photon    Coherent Incoher. Photoel. Nuclear  Electron Tot. w/  Tot. wo/ 
Energy    Scatter. Scatter. Absorb.  Pr. Prd. Pr. Prd. Coherent Coherent 

1.000E-03 1.386E+00 1.319E-02 4.030E+03 0.000E+00 0.000E+00 4.031E+03 4.030E+03 
1.035E-03 1.378E+00 1.403E-02 3.674E+03 0.000E+00 0.000E+00 3.675E+03 3.674E+03 
1.072E-03 1.371E+00 1.493E-02 3.350E+03 0.000E+00 0.000E+00 3.351E+03 3.350E+03 
1.072E-03 1.371E+00 1.493E-02 3.373E+03 0.000E+00 0.000E+00 3.375E+03 3.373E+03 
1.500E-03 1.282E+00 2.667E-02 1.370E+03 0.000E+00 0.000E+00 1.372E+03 1.370E+03 
2.000E-03 1.160E+00 4.170E-02 6.147E+02 0.000E+00 0.000E+00 6.159E+02 6.147E+02 
2.145E-03 1.124E+00 4.610E-02 5.036E+02 0.000E+00 0.000E+00 5.048E+02 5.037E+02 
2.145E-03 1.124E+00 4.610E-02 5.059E+02 0.000E+00 0.000E+00 5.070E+02 5.059E+02 
2.461E-03 1.045E+00 5.544E-02 3.419E+02 0.000E+00 0.000E+00 3.430E+02 3.419E+02 
2.822E-03 9.583E-01 6.567E-02 2.300E+02 0.000E+00 0.000E+00 2.311E+02 2.301E+02 
2.822E-03 9.583E-01 6.567E-02 2.388E+02 0.000E+00 0.000E+00 2.398E+02 2.389E+02 
3.000E-03 9.175E-01 7.045E-02 2.005E+02 0.000E+00 0.000E+00 2.015E+02 2.006E+02 
3.607E-03 7.889E-01 8.536E-02 1.171E+02 0.000E+00 0.000E+00 1.179E+02 1.171E+02 
3.607E-03 7.889E-01 8.536E-02 1.192E+02 0.000E+00 0.000E+00 1.201E+02 1.193E+02 
4.000E-03 7.160E-01 9.386E-02 8.784E+01 0.000E+00 0.000E+00 8.865E+01 8.793E+01 
5.000E-03 5.649E-01 1.118E-01 4.522E+01 0.000E+00 0.000E+00 4.589E+01 4.533E+01 
6.000E-03 4.554E-01 1.252E-01 2.610E+01 0.000E+00 0.000E+00 2.668E+01 2.622E+01 
8.000E-03 3.157E-01 1.433E-01 1.084E+01 0.000E+00 0.000E+00 1.130E+01 1.099E+01 
1.000E-02 2.352E-01 1.543E-01 5.439E+00 0.000E+00 0.000E+00 5.829E+00 5.594E+00 
1.500E-02 1.362E-01 1.693E-01 1.523E+00 0.000E+00 0.000E+00 1.829E+00 1.692E+00 
2.000E-02 9.046E-02 1.767E-01 6.096E-01 0.000E+00 0.000E+00 8.768E-01 7.863E-01 
3.000E-02 4.796E-02 1.823E-01 1.651E-01 0.000E+00 0.000E+00 3.953E-01 3.474E-01 
4.000E-02 2.940E-02 1.822E-01 6.476E-02 0.000E+00 0.000E+00 2.764E-01 2.470E-01 
5.000E-02 1.982E-02 1.798E-01 3.123E-02 0.000E+00 0.000E+00 2.309E-01 2.111E-01 
6.000E-02 1.425E-02 1.766E-01 1.718E-02 0.000E+00 0.000E+00 2.080E-01 1.937E-01 
8.000E-02 8.367E-03 1.693E-01 6.678E-03 0.000E+00 0.000E+00 1.843E-01 1.760E-01 
1.000E-01 5.484E-03 1.622E-01 3.211E-03 0.000E+00 0.000E+00 1.709E-01 1.654E-01 
1.500E-01 2.505E-03 1.470E-01 8.553E-04 0.000E+00 0.000E+00 1.504E-01 1.479E-01 
2.000E-01 1.424E-03 1.350E-01 3.394E-04 0.000E+00 0.000E+00 1.368E-01 1.354E-01 
3.000E-01 6.382E-04 1.177E-01 9.637E-05 0.000E+00 0.000E+00 1.184E-01 1.178E-01 
4.000E-01 3.601E-04 1.055E-01 4.137E-05 0.000E+00 0.000E+00 1.059E-01 1.056E-01 
5.000E-01 2.308E-04 9.642E-02 2.234E-05 0.000E+00 0.000E+00 9.667E-02 9.644E-02 
6.000E-01 1.604E-04 8.920E-02 1.393E-05 0.000E+00 0.000E+00 8.937E-02 8.921E-02 
8.000E-01 9.030E-05 7.839E-02 7.034E-06 0.000E+00 0.000E+00 7.849E-02 7.840E-02 
1.000E+00 5.780E-05 7.051E-02 4.373E-06 0.000E+00 0.000E+00 7.057E-02 7.051E-02 
1.022E+00 5.535E-05 6.976E-02 4.086E-06 0.000E+00 0.000E+00 6.982E-02 6.976E-02 
1.250E+00 3.702E-05 6.304E-02 2.773E-06 1.799E-05 0.000E+00 6.310E-02 6.306E-02 
1.500E+00 2.570E-05 5.729E-02 2.011E-06 9.934E-05 0.000E+00 5.742E-02 5.739E-02 
2.000E+00 1.446E-05 4.891E-02 1.262E-06 3.952E-04 0.000E+00 4.932E-02 4.930E-02 
2.044E+00 1.384E-05 4.829E-02 1.221E-06 4.259E-04 0.000E+00 4.873E-02 4.871E-02 
3.000E+00 6.426E-06 3.847E-02 7.031E-07 1.129E-03 1.346E-05 3.962E-02 3.961E-02 
4.000E+00 3.616E-06 3.209E-02 4.817E-07 1.831E-03 5.495E-05 3.398E-02 3.398E-02 
5.000E+00 2.313E-06 2.771E-02 3.648E-07 2.457E-03 1.095E-04 3.028E-02 3.028E-02 
6.000E+00 1.606E-06 2.449E-02 2.930E-07 3.019E-03 1.682E-04 2.768E-02 2.768E-02 