Density

1.420

Photon    Coherent Incoher. Photoel. Nuclear  Electron Tot. w/  Tot. wo/ 
Energy    Scatter. Scatter. Absorb.  Pr. Prd. Pr. Prd. Coherent Coherent 

1.000E-03 1.666E+00 1.335E-02 3.486E+03 0.000E+00 0.000E+00 3.487E+03 3.486E+03 
1.035E-03 1.655E+00 1.415E-02 3.176E+03 0.000E+00 0.000E+00 3.178E+03 3.177E+03 
1.072E-03 1.644E+00 1.500E-02 2.895E+03 0.000E+00 0.000E+00 2.896E+03 2.895E+03 
1.072E-03 1.644E+00 1.500E-02 2.901E+03 0.000E+00 0.000E+00 2.902E+03 2.901E+03 
1.183E-03 1.612E+00 1.766E-02 2.231E+03 0.000E+00 0.000E+00 2.232E+03 2.231E+03 
1.305E-03 1.577E+00 2.075E-02 1.713E+03 0.000E+00 0.000E+00 1.715E+03 1.713E+03 
1.305E-03 1.577E+00 2.075E-02 1.718E+03 0.000E+00 0.000E+00 1.720E+03 1.718E+03 
1.500E-03 1.520E+00 2.588E-02 1.179E+03 0.000E+00 0.000E+00 1.180E+03 1.179E+03 
2.000E-03 1.366E+00 3.935E-02 5.298E+02 0.000E+00 0.000E+00 5.312E+02 5.298E+02 
2.145E-03 1.322E+00 4.325E-02 4.343E+02 0.000E+00 0.000E+00 4.357E+02 4.343E+02 
2.145E-03 1.322E+00 4.325E-02 5.700E+02 0.000E+00 0.000E+00 5.713E+02 5.700E+02 
2.303E-03 1.276E+00 4.741E-02 4.708E+02 0.000E+00 0.000E+00 4.721E+02 4.708E+02 
2.472E-03 1.227E+00 5.180E-02 3.886E+02 0.000E+00 0.000E+00 3.899E+02 3.887E+02 
2.472E-03 1.227E+00 5.180E-02 3.942E+02 0.000E+00 0.000E+00 3.955E+02 3.942E+02 
2.641E-03 1.180E+00 5.608E-02 3.293E+02 0.000E+00 0.000E+00 3.305E+02 3.293E+02 
2.822E-03 1.131E+00 6.053E-02 2.747E+02 0.000E+00 0.000E+00 2.759E+02 2.748E+02 
2.822E-03 1.131E+00 6.053E-02 2.761E+02 0.000E+00 0.000E+00 2.773E+02 2.762E+02 
3.000E-03 1.086E+00 6.473E-02 2.334E+02 0.000E+00 0.000E+00 2.346E+02 2.335E+02 
3.607E-03 9.446E-01 7.786E-02 1.389E+02 0.000E+00 0.000E+00 1.399E+02 1.390E+02 
3.607E-03 9.446E-01 7.786E-02 1.399E+02 0.000E+00 0.000E+00 1.410E+02 1.400E+02 
4.000E-03 8.645E-01 8.532E-02 1.042E+02 0.000E+00 0.000E+00 1.051E+02 1.043E+02 
4.038E-03 8.571E-01 8.600E-02 1.014E+02 0.000E+00 0.000E+00 1.023E+02 1.015E+02 
4.038E-03 8.571E-01 8.600E-02 2.217E+02 0.000E+00 0.000E+00 2.227E+02 2.218E+02 
5.000E-03 7.004E-01 1.011E-01 1.262E+02 0.000E+00 0.000E+00 1.270E+02 1.263E+02 
6.000E-03 5.803E-01 1.130E-01 7.648E+01 0.000E+00 0.000E+00 7.718E+01 7.660E+01 
8.000E-03 4.230E-01 1.294E-01 3.428E+01 0.000E+00 0.000E+00 3.483E+01 3.441E+01 
1.000E-02 3.273E-01 1.401E-01 1.813E+01 0.000E+00 0.000E+00 1.860E+01 1.827E+01 
1.500E-02 1.973E-01 1.560E-01 5.548E+00 0.000E+00 0.000E+00 5.902E+00 5.704E+00 
2.000E-02 1.315E-01 1.645E-01 2.351E+00 0.000E+00 0.000E+00 2.647E+00 2.516E+00 
3.000E-02 7.004E-02 1.712E-01 6.849E-01 0.000E+00 0.000E+00 9.261E-01 8.561E-01 
4.000E-02 4.356E-02 1.718E-01 2.816E-01 0.000E+00 0.000E+00 4.970E-01 4.534E-01 
5.000E-02 2.976E-02 1.700E-01 1.404E-01 0.000E+00 0.000E+00 3.401E-01 3.104E-01 
6.000E-02 2.161E-02 1.673E-01 7.919E-02 0.000E+00 0.000E+00 2.681E-01 2.465E-01 
8.000E-02 1.284E-02 1.608E-01 3.192E-02 0.000E+00 0.000E+00 2.056E-01 1.928E-01 
1.000E-01 8.478E-03 1.544E-01 1.574E-02 0.000E+00 0.000E+00 1.786E-01 1.701E-01 
1.500E-01 3.918E-03 1.402E-01 4.368E-03 0.000E+00 0.000E+00 1.485E-01 1.446E-01 
2.000E-01 2.244E-03 1.289E-01 1.776E-03 0.000E+00 0.000E+00 1.329E-01 1.307E-01 
3.000E-01 1.013E-03 1.124E-01 5.181E-04 0.000E+00 0.000E+00 1.140E-01 1.130E-01 
4.000E-01 5.731E-04 1.009E-01 2.259E-04 0.000E+00 0.000E+00 1.017E-01 1.011E-01 
5.000E-01 3.679E-04 9.218E-02 1.230E-04 0.000E+00 0.000E+00 9.267E-02 9.230E-02 
6.000E-01 2.559E-04 8.529E-02 7.707E-05 0.000E+00 0.000E+00 8.562E-02 8.536E-02 
8.000E-01 1.442E-04 7.495E-02 3.911E-05 0.000E+00 0.000E+00 7.514E-02 7.499E-02 
1.000E+00 9.235E-05 6.741E-02 2.431E-05 0.000E+00 0.000E+00 6.753E-02 6.744E-02 
1.022E+00 8.844E-05 6.671E-02 2.298E-05 0.000E+00 0.000E+00 6.682E-02 6.673E-02 
1.250E+00 5.914E-05 6.028E-02 1.556E-05 2.283E-05 0.000E+00 6.038E-02 6.032E-02 
1.500E+00 4.108E-05 5.479E-02 1.125E-05 1.241E-04 0.000E+00 5.497E-02 5.493E-02 
2.000E+00 2.311E-05 4.676E-02 6.988E-06 4.904E-04 0.000E+00 4.728E-02 4.726E-02 
2.044E+00 2.213E-05 4.618E-02 6.754E-06 5.285E-04 0.000E+00 4.674E-02 4.671E-02 
3.000E+00 1.027E-05 3.679E-02 3.836E-06 1.393E-03 1.287E-05 3.821E-02 3.820E-02 
4.000E+00 5.781E-06 3.069E-02 2.601E-06 2.253E-03 5.255E-05 3.300E-02 3.300E-02 
5.000E+00 3.699E-06 2.650E-02 1.958E-06 3.017E-03 1.047E-04 2.963E-02 2.963E-02 
6.000E+00 2.569E-06 2.342E-02 1.565E-06 3.703E-03 1.608E-04 2.729E-02 2.729E-02 
