Density

1

Photon    Coherent Incoher. Photoel. Nuclear  Electron Tot. w/  
Energy    Scatter. Scatter. Absorb.  Pr. Prd. Pr. Prd. Coherent 

1.000E-03 1.37E+00 1.32E-02 4.08E+03 0.00E+00 0.00E+00 4.08E+03 
1.500E-03 1.27E+00 2.67E-02 1.38E+03 0.00E+00 0.00E+00 1.38E+03 
2.000E-03 1.15E+00 4.17E-02 6.17E+02 0.00E+00 0.00E+00 6.18E+02 
3.000E-03 9.09E-01 7.06E-02 1.92E+02 0.00E+00 0.00E+00 1.93E+02 
4.000E-03 7.09E-01 9.41E-02 8.20E+01 0.00E+00 0.00E+00 8.28E+01 
5.000E-03 5.58E-01 1.12E-01 4.20E+01 0.00E+00 0.00E+00 4.26E+01 
6.000E-03 4.49E-01 1.26E-01 2.41E+01 0.00E+00 0.00E+00 2.47E+01 
8.000E-03 3.10E-01 1.44E-01 9.93E+00 0.00E+00 0.00E+00 1.04E+01 
1.000E-02 2.31E-01 1.55E-01 4.95E+00 0.00E+00 0.00E+00 5.33E+00 
1.500E-02 1.33E-01 1.70E-01 1.37E+00 0.00E+00 0.00E+00 1.67E+00 
2.000E-02 8.86E-02 1.77E-01 5.44E-01 0.00E+00 0.00E+00 8.10E-01 
3.000E-02 4.70E-02 1.83E-01 1.46E-01 0.00E+00 0.00E+00 3.76E-01 
4.000E-02 2.88E-02 1.83E-01 5.68E-02 0.00E+00 0.00E+00 2.68E-01 
5.000E-02 1.94E-02 1.80E-01 2.73E-02 0.00E+00 0.00E+00 2.27E-01 
6.000E-02 1.39E-02 1.77E-01 1.49E-02 0.00E+00 0.00E+00 2.06E-01 
8.000E-02 8.17E-03 1.70E-01 5.78E-03 0.00E+00 0.00E+00 1.84E-01 
1.000E-01 5.35E-03 1.62E-01 2.77E-03 0.00E+00 0.00E+00 1.71E-01 
1.500E-01 2.44E-03 1.47E-01 7.31E-04 0.00E+00 0.00E+00 1.50E-01 
2.000E-01 1.39E-03 1.35E-01 2.89E-04 0.00E+00 0.00E+00 1.37E-01 
3.000E-01 6.22E-04 1.18E-01 8.17E-05 0.00E+00 0.00E+00 1.19E-01 
4.000E-01 3.51E-04 1.06E-01 3.50E-05 0.00E+00 0.00E+00 1.06E-01 
5.000E-01 2.25E-04 9.66E-02 1.89E-05 0.00E+00 0.00E+00 9.68E-02 
6.000E-01 1.56E-04 8.93E-02 1.17E-05 0.00E+00 0.00E+00 8.95E-02 
8.000E-01 8.80E-05 7.85E-02 5.93E-06 0.00E+00 0.00E+00 7.86E-02 
1.000E+00 5.63E-05 7.06E-02 3.68E-06 0.00E+00 0.00E+00 7.07E-02 
1.022E+00 5.39E-05 6.99E-02 3.43E-06 0.00E+00 0.00E+00 6.99E-02 
1.250E+00 3.61E-05 6.31E-02 2.33E-06 1.78E-05 0.00E+00 6.32E-02 
1.500E+00 2.50E-05 5.74E-02 1.69E-06 9.83E-05 0.00E+00 5.75E-02 
2.000E+00 1.41E-05 4.90E-02 1.06E-06 3.91E-04 0.00E+00 4.94E-02 
2.044E+00 1.35E-05 4.84E-02 1.03E-06 4.21E-04 0.00E+00 4.88E-02 
3.000E+00 6.26E-06 3.85E-02 5.94E-07 1.12E-03 1.35E-05 3.97E-02 
4.000E+00 3.52E-06 3.21E-02 4.08E-07 1.81E-03 5.50E-05 3.40E-02 
5.000E+00 2.25E-06 2.78E-02 3.09E-07 2.43E-03 1.10E-04 3.03E-02 
6.000E+00 1.56E-06 2.45E-02 2.49E-07 2.99E-03 1.68E-04 2.77E-02 
7.000E+00 1.15E-06 2.20E-02 2.08E-07 3.48E-03 2.27E-04 2.58E-02 
8.000E+00 8.80E-07 2.01E-02 1.78E-07 3.93E-03 2.84E-04 2.43E-02 
9.000E+00 6.96E-07 1.84E-02 1.56E-07 4.34E-03 3.39E-04 2.31E-02 
1.000E+01 5.63E-07 1.71E-02 1.39E-07 4.70E-03 3.91E-04 2.22E-02 
1.100E+01 4.66E-07 1.59E-02 1.25E-07 5.04E-03 4.40E-04 2.14E-02 
1.200E+01 3.91E-07 1.49E-02 1.13E-07 5.34E-03 4.87E-04 2.08E-02 
1.300E+01 3.33E-07 1.41E-02 1.04E-07 5.63E-03 5.31E-04 2.02E-02 
1.400E+01 2.87E-07 1.33E-02 9.60E-08 5.90E-03 5.73E-04 1.98E-02 
1.500E+01 2.50E-07 1.26E-02 8.91E-08 6.14E-03 6.13E-04 1.94E-02 
1.600E+01 2.20E-07 1.20E-02 8.32E-08 6.38E-03 6.51E-04 1.91E-02 
1.800E+01 1.74E-07 1.10E-02 7.34E-08 6.81E-03 7.22E-04 1.85E-02 
2.000E+01 1.41E-07 1.02E-02 6.56E-08 7.19E-03 7.87E-04 1.81E-02 
