Density

0.98

Photon    Coherent Incoher. Photoel. Nuclear  Electron Tot. w/  Tot. wo/ 
Energy    Scatter. Scatter. Absorb.  Pr. Prd. Pr. Prd. Coherent Coherent 

1.000E-03 1.099E+00 1.600E-02 2.513E+03 0.000E+00 0.000E+00 2.514E+03 2.513E+03 
1.035E-03 1.090E+00 1.700E-02 2.284E+03 0.000E+00 0.000E+00 2.285E+03 2.284E+03 
1.072E-03 1.082E+00 1.806E-02 2.076E+03 0.000E+00 0.000E+00 2.077E+03 2.076E+03 
1.072E-03 1.082E+00 1.806E-02 2.081E+03 0.000E+00 0.000E+00 2.083E+03 2.081E+03 
1.500E-03 9.886E-01 3.178E-02 8.206E+02 0.000E+00 0.000E+00 8.217E+02 8.207E+02 
2.000E-03 8.698E-01 4.880E-02 3.603E+02 0.000E+00 0.000E+00 3.612E+02 3.603E+02 
2.472E-03 7.623E-01 6.422E-02 1.941E+02 0.000E+00 0.000E+00 1.949E+02 1.942E+02 
2.472E-03 7.623E-01 6.422E-02 1.960E+02 0.000E+00 0.000E+00 1.968E+02 1.960E+02 
2.641E-03 7.265E-01 6.944E-02 1.613E+02 0.000E+00 0.000E+00 1.621E+02 1.613E+02 
2.822E-03 6.900E-01 7.480E-02 1.326E+02 0.000E+00 0.000E+00 1.334E+02 1.327E+02 
2.822E-03 6.900E-01 7.480E-02 1.341E+02 0.000E+00 0.000E+00 1.348E+02 1.341E+02 
3.000E-03 6.561E-01 7.983E-02 1.120E+02 0.000E+00 0.000E+00 1.127E+02 1.121E+02 
4.000E-03 4.990E-01 1.037E-01 4.729E+01 0.000E+00 0.000E+00 4.790E+01 4.740E+01 
5.000E-03 3.906E-01 1.208E-01 2.399E+01 0.000E+00 0.000E+00 2.450E+01 2.411E+01 
6.000E-03 3.157E-01 1.331E-01 1.369E+01 0.000E+00 0.000E+00 1.414E+01 1.382E+01 
8.000E-03 2.231E-01 1.492E-01 5.592E+00 0.000E+00 0.000E+00 5.964E+00 5.741E+00 
1.000E-02 1.698E-01 1.594E-01 2.769E+00 0.000E+00 0.000E+00 3.098E+00 2.928E+00 
1.500E-02 1.007E-01 1.741E-01 7.592E-01 0.000E+00 0.000E+00 1.034E+00 9.334E-01 
2.000E-02 6.663E-02 1.815E-01 2.997E-01 0.000E+00 0.000E+00 5.478E-01 4.812E-01 
3.000E-02 3.483E-02 1.861E-01 7.979E-02 0.000E+00 0.000E+00 3.007E-01 2.659E-01 
4.000E-02 2.122E-02 1.851E-01 3.098E-02 0.000E+00 0.000E+00 2.373E-01 2.161E-01 
5.000E-02 1.425E-02 1.821E-01 1.483E-02 0.000E+00 0.000E+00 2.112E-01 1.970E-01 
6.000E-02 1.021E-02 1.785E-01 8.108E-03 0.000E+00 0.000E+00 1.968E-01 1.866E-01 
8.000E-02 5.964E-03 1.708E-01 3.127E-03 0.000E+00 0.000E+00 1.799E-01 1.739E-01 
1.000E-01 3.893E-03 1.634E-01 1.495E-03 0.000E+00 0.000E+00 1.688E-01 1.649E-01 
1.500E-01 1.769E-03 1.479E-01 3.949E-04 0.000E+00 0.000E+00 1.500E-01 1.483E-01 
2.000E-01 1.003E-03 1.358E-01 1.559E-04 0.000E+00 0.000E+00 1.369E-01 1.359E-01 
3.000E-01 4.487E-04 1.183E-01 4.398E-05 0.000E+00 0.000E+00 1.187E-01 1.183E-01 
4.000E-01 2.529E-04 1.060E-01 1.882E-05 0.000E+00 0.000E+00 1.063E-01 1.060E-01 
5.000E-01 1.621E-04 9.686E-02 1.014E-05 0.000E+00 0.000E+00 9.704E-02 9.687E-02 
6.000E-01 1.126E-04 8.961E-02 6.315E-06 0.000E+00 0.000E+00 8.973E-02 8.961E-02 
8.000E-01 6.337E-05 7.873E-02 3.187E-06 0.000E+00 0.000E+00 7.880E-02 7.873E-02 
1.000E+00 4.057E-05 7.080E-02 1.981E-06 0.000E+00 0.000E+00 7.084E-02 7.080E-02 
1.022E+00 3.884E-05 7.007E-02 1.840E-06 0.000E+00 0.000E+00 7.011E-02 7.007E-02 
1.250E+00 2.597E-05 6.331E-02 1.249E-06 1.452E-05 0.000E+00 6.335E-02 6.333E-02 
1.500E+00 1.803E-05 5.755E-02 9.063E-07 8.051E-05 0.000E+00 5.765E-02 5.763E-02 
2.000E+00 1.015E-05 4.911E-02 5.705E-07 3.208E-04 0.000E+00 4.944E-02 4.943E-02 
2.044E+00 9.712E-06 4.850E-02 5.518E-07 3.458E-04 0.000E+00 4.886E-02 4.885E-02 
3.000E+00 4.510E-06 3.863E-02 3.190E-07 9.182E-04 1.352E-05 3.957E-02 3.956E-02 
4.000E+00 2.537E-06 3.223E-02 2.190E-07 1.490E-03 5.519E-05 3.377E-02 3.377E-02 
5.000E+00 1.623E-06 2.783E-02 1.661E-07 2.000E-03 1.100E-04 2.994E-02 2.994E-02 
6.000E+00 1.127E-06 2.460E-02 1.336E-07 2.458E-03 1.689E-04 2.723E-02 2.723E-02 
